201.000	1.000	0.200	6910.000	6950.000
6.910000E+3	2.100000E+1
6.910200E+3	4.000000E+1
6.910400E+3	7.000000E+1
6.910600E+3	5.800000E+1
6.910800E+3	3.800000E+1
6.911000E+3	3.500000E+1
6.911200E+3	3.200000E+1
6.911400E+3	4.000000E+1
6.911600E+3	2.200000E+1
6.911800E+3	3.400000E+1
6.912000E+3	2.000000E+1
6.912200E+3	2.700000E+1
6.912400E+3	3.900000E+1
6.912600E+3	3.000000E+1
6.912800E+3	1.200000E+1
6.913000E+3	3.800000E+1
6.913200E+3	3.900000E+1
6.913400E+3	2.100000E+1
6.913600E+3	3.100000E+1
6.913800E+3	3.400000E+1
6.914000E+3	2.000000E+1
6.914200E+3	1.400000E+1
6.914400E+3	1.800000E+1
6.914600E+3	2.800000E+1
6.914800E+3	6.500000E+1
6.915000E+3	7.000000E+0
6.915200E+3	3.200000E+1
6.915400E+3	4.700000E+1
6.915600E+3	3.700000E+1
6.915800E+3	1.500000E+1
6.916000E+3	1.900000E+1
6.916200E+3	3.500000E+1
6.916400E+3	1.700000E+1
6.916600E+3	6.200000E+1
6.916800E+3	5.100000E+1
6.917000E+3	3.100000E+1
6.917200E+3	4.400000E+1
6.917400E+3	2.900000E+1
6.917600E+3	1.100000E+1
6.917800E+3	2.400000E+1
6.918000E+3	2.500000E+1
6.918200E+3	3.200000E+1
6.918400E+3	2.700000E+1
6.918600E+3	2.100000E+1
6.918800E+3	2.500000E+1
6.919000E+3	3.400000E+1
6.919200E+3	3.200000E+1
6.919400E+3	3.300000E+1
6.919600E+3	2.000000E+1
6.919800E+3	3.200000E+1
6.920000E+3	2.800000E+1
6.920200E+3	1.010000E+2
6.920400E+3	2.600000E+1
6.920600E+3	3.700000E+1
6.920800E+3	9.800000E+1
6.921000E+3	2.800000E+1
6.921200E+3	7.200000E+1
6.921400E+3	1.090000E+2
6.921600E+3	6.600000E+1
6.921800E+3	8.500000E+1
6.922000E+3	5.400000E+1
6.922200E+3	6.700000E+1
6.922400E+3	6.000000E+1
6.922600E+3	6.300000E+1
6.922800E+3	9.400000E+1
6.923000E+3	9.400000E+1
6.923200E+3	4.400000E+1
6.923400E+3	7.800000E+1
6.923600E+3	8.500000E+1
6.923800E+3	8.000000E+1
6.924000E+3	5.500000E+1
6.924200E+3	9.700000E+1
6.924400E+3	1.140000E+2
6.924600E+3	3.900000E+1
6.924800E+3	1.080000E+2
6.925000E+3	7.300000E+1
6.925200E+3	9.500000E+1
6.925400E+3	1.690000E+2
6.925600E+3	1.630000E+2
6.925800E+3	2.280000E+2
6.926000E+3	2.100000E+2
6.926200E+3	2.620000E+2
6.926400E+3	2.600000E+2
6.926600E+3	2.260000E+2
6.926800E+3	2.910000E+2
6.927000E+3	3.150000E+2
6.927200E+3	3.360000E+2
6.927400E+3	3.240000E+2
6.927600E+3	5.030000E+2
6.927800E+3	4.780000E+2
6.928000E+3	4.660000E+2
6.928200E+3	5.010000E+2
6.928400E+3	5.850000E+2
6.928600E+3	5.070000E+2
6.928800E+3	5.720000E+2
6.929000E+3	5.740000E+2
6.929200E+3	6.680000E+2
6.929400E+3	5.730000E+2
6.929600E+3	6.200000E+2
6.929800E+3	6.940000E+2
6.930000E+3	6.610000E+2
6.930200E+3	6.860000E+2
6.930400E+3	7.710000E+2
6.930600E+3	6.400000E+2
6.930800E+3	7.880000E+2
6.931000E+3	7.520000E+2
6.931200E+3	6.790000E+2
6.931400E+3	7.880000E+2
6.931600E+3	7.510000E+2
6.931800E+3	9.370000E+2
6.932000E+3	6.570000E+2
6.932200E+3	8.020000E+2
6.932400E+3	7.640000E+2
6.932600E+3	7.660000E+2
6.932800E+3	6.640000E+2
6.933000E+3	7.550000E+2
6.933200E+3	6.970000E+2
6.933400E+3	8.050000E+2
6.933600E+3	7.090000E+2
6.933800E+3	7.450000E+2
6.934000E+3	8.430000E+2
6.934200E+3	7.210000E+2
6.934400E+3	6.510000E+2
6.934600E+3	6.020000E+2
6.934800E+3	5.040000E+2
6.935000E+3	4.930000E+2
6.935200E+3	6.350000E+2
6.935400E+3	5.700000E+2
6.935600E+3	4.570000E+2
6.935800E+3	5.050000E+2
6.936000E+3	4.270000E+2
6.936200E+3	4.410000E+2
6.936400E+3	3.720000E+2
6.936600E+3	3.810000E+2
6.936800E+3	3.180000E+2
6.937000E+3	2.830000E+2
6.937200E+3	3.330000E+2
6.937400E+3	3.320000E+2
6.937600E+3	2.250000E+2
6.937800E+3	1.980000E+2
6.938000E+3	2.940000E+2
6.938200E+3	2.640000E+2
6.938400E+3	1.920000E+2
6.938600E+3	1.070000E+2
6.938800E+3	1.300000E+2
6.939000E+3	7.000000E+1
6.939200E+3	8.100000E+1
6.939400E+3	1.210000E+2
6.939600E+3	8.400000E+1
6.939800E+3	4.000000E+1
6.940000E+3	2.300000E+1
6.940200E+3	5.300000E+1
6.940400E+3	4.400000E+1
6.940600E+3	1.400000E+1
6.940800E+3	4.900000E+1
6.941000E+3	3.300000E+1
6.941200E+3	5.400000E+1
6.941400E+3	3.000000E+1
6.941600E+3	5.200000E+1
6.941800E+3	2.500000E+1
6.942000E+3	4.000000E+1
6.942200E+3	3.800000E+1
6.942400E+3	1.500000E+1
6.942600E+3	5.900000E+1
6.942800E+3	2.100000E+1
6.943000E+3	4.700000E+1
6.943200E+3	5.200000E+1
6.943400E+3	3.600000E+1
6.943600E+3	7.000000E+1
6.943800E+3	4.700000E+1
6.944000E+3	5.400000E+1
6.944200E+3	7.000000E+1
6.944400E+3	1.800000E+1
6.944600E+3	6.400000E+1
6.944800E+3	4.100000E+1
6.945000E+3	3.000000E+1
6.945200E+3	1.300000E+1
6.945400E+3	1.500000E+1
6.945600E+3	5.800000E+1
6.945800E+3	2.600000E+1
6.946000E+3	3.000000E+1
6.946200E+3	2.500000E+1
6.946400E+3	5.100000E+1
6.946600E+3	1.300000E+1
6.946800E+3	2.900000E+1
6.947000E+3	1.800000E+1
6.947200E+3	3.200000E+1
6.947400E+3	7.200000E+1
6.947600E+3	2.300000E+1
6.947800E+3	5.000000E+1
6.948000E+3	3.000000E+1
6.948200E+3	3.800000E+1
6.948400E+3	1.800000E+1
6.948600E+3	3.300000E+1
6.948800E+3	4.800000E+1
6.949000E+3	4.300000E+1
6.949200E+3	2.500000E+1
6.949400E+3	2.600000E+1
6.949600E+3	4.000000E+1
6.949800E+3	0.000000E+0
6.950000E+3	2.500000E+1
