226.000	1.000	0.600	6430.000	6565.000
6.430000E+3	1.800000E+1
6.430600E+3	1.200000E+1
6.431200E+3	3.000000E+1
6.431800E+3	1.100000E+1
6.432400E+3	2.500000E+1
6.433000E+3	3.100000E+1
6.433600E+3	1.500000E+1
6.434200E+3	1.900000E+1
6.434800E+3	2.900000E+1
6.435400E+3	2.100000E+1
6.436000E+3	1.200000E+1
6.436600E+3	1.700000E+1
6.437200E+3	3.400000E+1
6.437800E+3	1.500000E+1
6.438400E+3	2.700000E+1
6.439000E+3	7.000000E+0
6.439600E+3	1.000000E+1
6.440200E+3	3.200000E+1
6.440800E+3	4.000000E+1
6.441400E+3	2.800000E+1
6.442000E+3	9.000000E+0
6.442600E+3	3.900000E+1
6.443200E+3	1.600000E+1
6.443800E+3	1.700000E+1
6.444400E+3	9.000000E+0
6.445000E+3	2.300000E+1
6.445600E+3	2.000000E+1
6.446200E+3	4.800000E+1
6.446800E+3	5.700000E+1
6.447400E+3	2.500000E+1
6.448000E+3	1.700000E+1
6.448600E+3	1.200000E+1
6.449200E+3	2.400000E+1
6.449800E+3	6.000000E+0
6.450400E+3	2.900000E+1
6.451000E+3	2.700000E+1
6.451600E+3	3.400000E+1
6.452200E+3	7.600000E+1
6.452800E+3	1.700000E+1
6.453400E+3	2.500000E+1
6.454000E+3	3.100000E+1
6.454600E+3	2.600000E+1
6.455200E+3	2.900000E+1
6.455800E+3	9.000000E+0
6.456400E+3	1.700000E+1
6.457000E+3	1.400000E+1
6.457600E+3	1.700000E+1
6.458200E+3	2.000000E+1
6.458800E+3	2.700000E+1
6.459400E+3	2.500000E+1
6.460000E+3	2.400000E+1
6.460600E+3	1.100000E+1
6.461200E+3	2.700000E+1
6.461800E+3	1.600000E+1
6.462400E+3	3.200000E+1
6.463000E+3	1.000000E+1
6.463600E+3	1.700000E+1
6.464200E+3	3.500000E+1
6.464800E+3	3.200000E+1
6.465400E+3	1.200000E+1
6.466000E+3	2.500000E+1
6.466600E+3	2.100000E+1
6.467200E+3	8.000000E+0
6.467800E+3	1.600000E+1
6.468400E+3	2.900000E+1
6.469000E+3	1.200000E+1
6.469600E+3	3.400000E+1
6.470200E+3	2.000000E+1
6.470800E+3	2.400000E+1
6.471400E+3	2.600000E+1
6.472000E+3	3.500000E+1
6.472600E+3	2.600000E+1
6.473200E+3	2.500000E+1
6.473800E+3	2.200000E+1
6.474400E+3	3.700000E+1
6.475000E+3	5.600000E+1
6.475600E+3	2.500000E+1
6.476200E+3	1.700000E+1
6.476800E+3	4.600000E+1
6.477400E+3	2.900000E+1
6.478000E+3	2.300000E+1
6.478600E+3	2.700000E+1
6.479200E+3	2.900000E+1
6.479800E+3	5.200000E+1
6.480400E+3	1.600000E+1
6.481000E+3	5.700000E+1
6.481600E+3	2.500000E+1
6.482200E+3	1.700000E+1
6.482800E+3	2.500000E+1
6.483400E+3	2.500000E+1
6.484000E+3	1.300000E+1
6.484600E+3	1.400000E+1
6.485200E+3	3.300000E+1
6.485800E+3	1.500000E+1
6.486400E+3	2.700000E+1
6.487000E+3	1.800000E+1
6.487600E+3	1.000000E+1
6.488200E+3	1.700000E+1
6.488800E+3	3.100000E+1
6.489400E+3	2.500000E+1
6.490000E+3	2.900000E+1
6.490600E+3	3.800000E+1
6.491200E+3	2.600000E+1
6.491800E+3	1.600000E+1
6.492400E+3	2.300000E+1
6.493000E+3	4.300000E+1
6.493600E+3	2.100000E+1
6.494200E+3	2.000000E+1
6.494800E+3	2.300000E+1
6.495400E+3	2.600000E+1
6.496000E+3	1.700000E+1
6.496600E+3	1.000000E+1
6.497200E+3	3.100000E+1
6.497800E+3	1.600000E+1
6.498400E+3	1.800000E+1
6.499000E+3	1.600000E+1
6.499600E+3	2.200000E+1
6.500200E+3	2.300000E+1
6.500800E+3	9.000000E+0
6.501400E+3	2.300000E+1
6.502000E+3	2.900000E+1
6.502600E+3	3.300000E+1
6.503200E+3	7.000000E+0
6.503800E+3	3.100000E+1
6.504400E+3	3.000000E+1
6.505000E+3	5.200000E+1
6.505600E+3	4.700000E+1
6.506200E+3	4.400000E+1
6.506800E+3	5.000000E+1
6.507400E+3	5.600000E+1
6.508000E+3	5.200000E+1
6.508600E+3	4.700000E+1
6.509200E+3	4.600000E+1
6.509800E+3	4.900000E+1
6.510400E+3	3.600000E+1
6.511000E+3	3.300000E+1
6.511600E+3	1.700000E+1
6.512200E+3	1.500000E+1
6.512800E+3	2.600000E+1
6.513400E+3	1.800000E+1
6.514000E+3	2.600000E+1
6.514600E+3	2.400000E+1
6.515200E+3	3.100000E+1
6.515800E+3	2.200000E+1
6.516400E+3	1.200000E+1
6.517000E+3	1.400000E+1
6.517600E+3	1.700000E+1
6.518200E+3	2.000000E+1
6.518800E+3	1.800000E+1
6.519400E+3	1.500000E+1
6.520000E+3	3.200000E+1
6.520600E+3	3.000000E+1
6.521200E+3	1.700000E+1
6.521800E+3	1.400000E+1
6.522400E+3	1.900000E+1
6.523000E+3	1.100000E+1
6.523600E+3	2.600000E+1
6.524200E+3	1.000000E+1
6.524800E+3	2.200000E+1
6.525400E+3	1.600000E+1
6.526000E+3	1.300000E+1
6.526600E+3	3.300000E+1
6.527200E+3	1.000000E+1
6.527800E+3	3.500000E+1
6.528400E+3	4.000000E+0
6.529000E+3	1.100000E+1
6.529600E+3	2.000000E+1
6.530200E+3	1.900000E+1
6.530800E+3	1.600000E+1
6.531400E+3	1.100000E+1
6.532000E+3	1.300000E+1
6.532600E+3	7.000000E+0
6.533200E+3	2.200000E+1
6.533800E+3	3.000000E+0
6.534400E+3	9.000000E+0
6.535000E+3	1.600000E+1
6.535600E+3	1.900000E+1
6.536200E+3	1.800000E+1
6.536800E+3	2.200000E+1
6.537400E+3	6.200000E+1
6.538000E+3	1.500000E+1
6.538600E+3	9.000000E+0
6.539200E+3	1.100000E+1
6.539800E+3	2.600000E+1
6.540400E+3	1.100000E+1
6.541000E+3	1.200000E+1
6.541600E+3	2.700000E+1
6.542200E+3	3.500000E+1
6.542800E+3	2.200000E+1
6.543400E+3	3.200000E+1
6.544000E+3	2.000000E+1
6.544600E+3	6.000000E+0
6.545200E+3	1.000000E+1
6.545800E+3	2.700000E+1
6.546400E+3	2.300000E+1
6.547000E+3	1.800000E+1
6.547600E+3	5.000000E+0
6.548200E+3	3.400000E+1
6.548800E+3	2.000000E+1
6.549400E+3	3.000000E+0
6.550000E+3	2.200000E+1
6.550600E+3	6.000000E+0
6.551200E+3	2.200000E+1
6.551800E+3	2.600000E+1
6.552400E+3	1.600000E+1
6.553000E+3	1.600000E+1
6.553600E+3	1.200000E+1
6.554200E+3	1.500000E+1
6.554800E+3	5.000000E+0
6.555400E+3	2.100000E+1
6.556000E+3	1.900000E+1
6.556600E+3	2.100000E+1
6.557200E+3	2.700000E+1
6.557800E+3	1.300000E+1
6.558400E+3	2.500000E+1
6.559000E+3	1.000000E+1
6.559600E+3	1.000000E+0
6.560200E+3	7.000000E+0
6.560800E+3	1.400000E+1
6.561400E+3	1.300000E+1
6.562000E+3	9.000000E+0
6.562600E+3	5.000000E+0
6.563200E+3	9.000000E+0
6.563800E+3	2.000000E+0
6.564400E+3	6.000000E+0
6.565000E+3	1.500000E+1
