351.000	1.000	0.400	6400.000	6540.000
6.400000E+3	4.405000E+3
6.400400E+3	4.572000E+3
6.400800E+3	4.389000E+3
6.401200E+3	4.550000E+3
6.401600E+3	4.655000E+3
6.402000E+3	4.431000E+3
6.402400E+3	4.358000E+3
6.402800E+3	4.640000E+3
6.403200E+3	4.385000E+3
6.403600E+3	4.386000E+3
6.404000E+3	4.468000E+3
6.404400E+3	4.463000E+3
6.404800E+3	4.559000E+3
6.405200E+3	4.385000E+3
6.405600E+3	4.486000E+3
6.406000E+3	4.276000E+3
6.406400E+3	4.512000E+3
6.406800E+3	4.337000E+3
6.407200E+3	4.165000E+3
6.407600E+3	4.092000E+3
6.408000E+3	4.525000E+3
6.408400E+3	4.422000E+3
6.408800E+3	4.798000E+3
6.409200E+3	4.378000E+3
6.409600E+3	4.236000E+3
6.410000E+3	4.351000E+3
6.410400E+3	4.434000E+3
6.410800E+3	4.333000E+3
6.411200E+3	4.216000E+3
6.411600E+3	4.318000E+3
6.412000E+3	4.210000E+3
6.412400E+3	4.497000E+3
6.412800E+3	4.452000E+3
6.413200E+3	4.597000E+3
6.413600E+3	4.444000E+3
6.414000E+3	4.635000E+3
6.414400E+3	4.655000E+3
6.414800E+3	4.865000E+3
6.415200E+3	5.398000E+3
6.415600E+3	5.739000E+3
6.416000E+3	6.041000E+3
6.416400E+3	6.947000E+3
6.416800E+3	8.072000E+3
6.417200E+3	9.093000E+3
6.417600E+3	9.834000E+3
6.418000E+3	1.041200E+4
6.418400E+3	1.127100E+4
6.418800E+3	1.040800E+4
6.419200E+3	9.755000E+3
6.419600E+3	8.161000E+3
6.420000E+3	6.468000E+3
6.420400E+3	5.550000E+3
6.420800E+3	4.590000E+3
6.421200E+3	4.415000E+3
6.421600E+3	4.448000E+3
6.422000E+3	4.607000E+3
6.422400E+3	3.982000E+3
6.422800E+3	4.163000E+3
6.423200E+3	4.435000E+3
6.423600E+3	4.393000E+3
6.424000E+3	4.465000E+3
6.424400E+3	4.527000E+3
6.424800E+3	4.600000E+3
6.425200E+3	4.377000E+3
6.425600E+3	4.369000E+3
6.426000E+3	4.517000E+3
6.426400E+3	4.352000E+3
6.426800E+3	4.629000E+3
6.427200E+3	4.573000E+3
6.427600E+3	4.135000E+3
6.428000E+3	4.288000E+3
6.428400E+3	4.466000E+3
6.428800E+3	4.569000E+3
6.429200E+3	4.680000E+3
6.429600E+3	4.658000E+3
6.430000E+3	4.861000E+3
6.430400E+3	4.843000E+3
6.430800E+3	4.361000E+3
6.431200E+3	4.559000E+3
6.431600E+3	4.465000E+3
6.432000E+3	4.498000E+3
6.432400E+3	4.455000E+3
6.432800E+3	4.240000E+3
6.433200E+3	4.294000E+3
6.433600E+3	4.056000E+3
6.434000E+3	3.979000E+3
6.434400E+3	4.166000E+3
6.434800E+3	4.318000E+3
6.435200E+3	4.283000E+3
6.435600E+3	4.206000E+3
6.436000E+3	4.009000E+3
6.436400E+3	4.277000E+3
6.436800E+3	4.200000E+3
6.437200E+3	4.281000E+3
6.437600E+3	4.236000E+3
6.438000E+3	3.961000E+3
6.438400E+3	3.712000E+3
6.438800E+3	3.970000E+3
6.439200E+3	4.230000E+3
6.439600E+3	4.059000E+3
6.440000E+3	4.061000E+3
6.440400E+3	4.608000E+3
6.440800E+3	4.092000E+3
6.441200E+3	4.224000E+3
6.441600E+3	4.232000E+3
6.442000E+3	4.192000E+3
6.442400E+3	3.948000E+3
6.442800E+3	4.017000E+3
6.443200E+3	4.267000E+3
6.443600E+3	4.203000E+3
6.444000E+3	4.054000E+3
6.444400E+3	4.144000E+3
6.444800E+3	4.214000E+3
6.445200E+3	4.318000E+3
6.445600E+3	4.121000E+3
6.446000E+3	4.055000E+3
6.446400E+3	4.098000E+3
6.446800E+3	3.926000E+3
6.447200E+3	3.963000E+3
6.447600E+3	4.137000E+3
6.448000E+3	3.758000E+3
6.448400E+3	4.003000E+3
6.448800E+3	3.962000E+3
6.449200E+3	4.063000E+3
6.449600E+3	3.954000E+3
6.450000E+3	3.968000E+3
6.450400E+3	3.943000E+3
6.450800E+3	4.264000E+3
6.451200E+3	3.981000E+3
6.451600E+3	4.204000E+3
6.452000E+3	4.279000E+3
6.452400E+3	4.120000E+3
6.452800E+3	4.122000E+3
6.453200E+3	3.815000E+3
6.453600E+3	4.195000E+3
6.454000E+3	4.113000E+3
6.454400E+3	3.828000E+3
6.454800E+3	4.167000E+3
6.455200E+3	4.195000E+3
6.455600E+3	4.364000E+3
6.456000E+3	4.027000E+3
6.456400E+3	4.103000E+3
6.456800E+3	3.890000E+3
6.457200E+3	3.965000E+3
6.457600E+3	3.807000E+3
6.458000E+3	4.303000E+3
6.458400E+3	4.033000E+3
6.458800E+3	4.033000E+3
6.459200E+3	3.986000E+3
6.459600E+3	4.085000E+3
6.460000E+3	4.270000E+3
6.460400E+3	4.043000E+3
6.460800E+3	3.904000E+3
6.461200E+3	4.125000E+3
6.461600E+3	3.925000E+3
6.462000E+3	4.073000E+3
6.462400E+3	3.946000E+3
6.462800E+3	4.173000E+3
6.463200E+3	4.147000E+3
6.463600E+3	4.104000E+3
6.464000E+3	3.917000E+3
6.464400E+3	4.063000E+3
6.464800E+3	3.927000E+3
6.465200E+3	3.897000E+3
6.465600E+3	4.097000E+3
6.466000E+3	4.025000E+3
6.466400E+3	4.017000E+3
6.466800E+3	4.149000E+3
6.467200E+3	3.995000E+3
6.467600E+3	4.069000E+3
6.468000E+3	3.832000E+3
6.468400E+3	3.998000E+3
6.468800E+3	4.196000E+3
6.469200E+3	3.846000E+3
6.469600E+3	4.211000E+3
6.470000E+3	4.087000E+3
6.470400E+3	4.168000E+3
6.470800E+3	4.238000E+3
6.471200E+3	3.833000E+3
6.471600E+3	3.590000E+3
6.472000E+3	3.882000E+3
6.472400E+3	4.012000E+3
6.472800E+3	3.807000E+3
6.473200E+3	4.087000E+3
6.473600E+3	4.158000E+3
6.474000E+3	3.969000E+3
6.474400E+3	3.902000E+3
6.474800E+3	3.936000E+3
6.475200E+3	4.076000E+3
6.475600E+3	4.217000E+3
6.476000E+3	4.205000E+3
6.476400E+3	4.054000E+3
6.476800E+3	4.014000E+3
6.477200E+3	3.790000E+3
6.477600E+3	4.110000E+3
6.478000E+3	3.743000E+3
6.478400E+3	4.190000E+3
6.478800E+3	4.037000E+3
6.479200E+3	3.941000E+3
6.479600E+3	3.989000E+3
6.480000E+3	4.063000E+3
6.480400E+3	3.964000E+3
6.480800E+3	3.865000E+3
6.481200E+3	3.835000E+3
6.481600E+3	3.973000E+3
6.482000E+3	4.127000E+3
6.482400E+3	3.879000E+3
6.482800E+3	3.643000E+3
6.483200E+3	3.952000E+3
6.483600E+3	4.165000E+3
6.484000E+3	3.925000E+3
6.484400E+3	3.969000E+3
6.484800E+3	3.957000E+3
6.485200E+3	3.799000E+3
6.485600E+3	3.917000E+3
6.486000E+3	3.905000E+3
6.486400E+3	4.102000E+3
6.486800E+3	4.009000E+3
6.487200E+3	3.749000E+3
6.487600E+3	3.834000E+3
6.488000E+3	3.919000E+3
6.488400E+3	3.745000E+3
6.488800E+3	4.132000E+3
6.489200E+3	3.900000E+3
6.489600E+3	4.017000E+3
6.490000E+3	3.720000E+3
6.490400E+3	3.709000E+3
6.490800E+3	3.814000E+3
6.491200E+3	3.883000E+3
6.491600E+3	4.199000E+3
6.492000E+3	3.822000E+3
6.492400E+3	4.053000E+3
6.492800E+3	3.947000E+3
6.493200E+3	3.813000E+3
6.493600E+3	4.108000E+3
6.494000E+3	3.807000E+3
6.494400E+3	3.996000E+3
6.494800E+3	4.189000E+3
6.495200E+3	3.728000E+3
6.495600E+3	3.812000E+3
6.496000E+3	3.925000E+3
6.496400E+3	3.800000E+3
6.496800E+3	4.082000E+3
6.497200E+3	3.841000E+3
6.497600E+3	3.854000E+3
6.498000E+3	3.636000E+3
6.498400E+3	3.899000E+3
6.498800E+3	4.036000E+3
6.499200E+3	3.912000E+3
6.499600E+3	4.048000E+3
6.500000E+3	3.718000E+3
6.500400E+3	3.630000E+3
6.500800E+3	3.855000E+3
6.501200E+3	3.726000E+3
6.501600E+3	3.963000E+3
6.502000E+3	3.959000E+3
6.502400E+3	3.847000E+3
6.502800E+3	3.816000E+3
6.503200E+3	4.023000E+3
6.503600E+3	4.061000E+3
6.504000E+3	4.026000E+3
6.504400E+3	3.958000E+3
6.504800E+3	4.245000E+3
6.505200E+3	4.101000E+3
6.505600E+3	3.999000E+3
6.506000E+3	4.571000E+3
6.506400E+3	4.134000E+3
6.506800E+3	4.175000E+3
6.507200E+3	4.028000E+3
6.507600E+3	4.460000E+3
6.508000E+3	4.457000E+3
6.508400E+3	4.251000E+3
6.508800E+3	4.393000E+3
6.509200E+3	4.300000E+3
6.509600E+3	4.471000E+3
6.510000E+3	4.415000E+3
6.510400E+3	4.277000E+3
6.510800E+3	4.191000E+3
6.511200E+3	4.367000E+3
6.511600E+3	4.236000E+3
6.512000E+3	4.299000E+3
6.512400E+3	4.203000E+3
6.512800E+3	4.138000E+3
6.513200E+3	4.213000E+3
6.513600E+3	4.073000E+3
6.514000E+3	3.673000E+3
6.514400E+3	4.062000E+3
6.514800E+3	3.595000E+3
6.515200E+3	3.865000E+3
6.515600E+3	4.056000E+3
6.516000E+3	3.602000E+3
6.516400E+3	3.689000E+3
6.516800E+3	3.798000E+3
6.517200E+3	3.979000E+3
6.517600E+3	3.824000E+3
6.518000E+3	3.990000E+3
6.518400E+3	3.896000E+3
6.518800E+3	3.980000E+3
6.519200E+3	3.712000E+3
6.519600E+3	3.761000E+3
6.520000E+3	3.943000E+3
6.520400E+3	3.936000E+3
6.520800E+3	4.320000E+3
6.521200E+3	4.178000E+3
6.521600E+3	4.124000E+3
6.522000E+3	4.632000E+3
6.522400E+3	4.524000E+3
6.522800E+3	4.668000E+3
6.523200E+3	4.903000E+3
6.523600E+3	4.983000E+3
6.524000E+3	5.317000E+3
6.524400E+3	5.599000E+3
6.524800E+3	6.278000E+3
6.525200E+3	6.945000E+3
6.525600E+3	7.240000E+3
6.526000E+3	7.627000E+3
6.526400E+3	7.929000E+3
6.526800E+3	7.572000E+3
6.527200E+3	6.910000E+3
6.527600E+3	6.031000E+3
6.528000E+3	5.334000E+3
6.528400E+3	5.229000E+3
6.528800E+3	4.662000E+3
6.529200E+3	4.354000E+3
6.529600E+3	4.348000E+3
6.530000E+3	4.004000E+3
6.530400E+3	3.683000E+3
6.530800E+3	3.712000E+3
6.531200E+3	4.151000E+3
6.531600E+3	3.743000E+3
6.532000E+3	3.590000E+3
6.532400E+3	3.729000E+3
6.532800E+3	3.538000E+3
6.533200E+3	3.778000E+3
6.533600E+3	3.582000E+3
6.534000E+3	3.638000E+3
6.534400E+3	3.701000E+3
6.534800E+3	3.761000E+3
6.535200E+3	3.718000E+3
6.535600E+3	3.779000E+3
6.536000E+3	3.791000E+3
6.536400E+3	3.751000E+3
6.536800E+3	3.697000E+3
6.537200E+3	3.807000E+3
6.537600E+3	3.552000E+3
6.538000E+3	3.477000E+3
6.538400E+3	3.861000E+3
6.538800E+3	3.650000E+3
6.539200E+3	3.491000E+3
6.539600E+3	3.363000E+3
6.540000E+3	3.409000E+3
