301.000	1.000	0.400	6130.000	6250.000
6.130000E+3	2.000000E+0
6.130400E+3	2.700000E+1
6.130800E+3	3.840000E+2
6.131200E+3	4.690000E+2
6.131600E+3	5.180000E+2
6.132000E+3	4.130000E+2
6.132400E+3	4.300000E+2
6.132800E+3	4.970000E+2
6.133200E+3	4.490000E+2
6.133600E+3	4.400000E+2
6.134000E+3	4.400000E+2
6.134400E+3	4.200000E+2
6.134800E+3	3.840000E+2
6.135200E+3	4.560000E+2
6.135600E+3	4.340000E+2
6.136000E+3	3.920000E+2
6.136400E+3	3.730000E+2
6.136800E+3	4.080000E+2
6.137200E+3	4.640000E+2
6.137600E+3	4.850000E+2
6.138000E+3	4.960000E+2
6.138400E+3	4.230000E+2
6.138800E+3	5.260000E+2
6.139200E+3	4.960000E+2
6.139600E+3	5.550000E+2
6.140000E+3	5.370000E+2
6.140400E+3	5.540000E+2
6.140800E+3	6.010000E+2
6.141200E+3	7.600000E+2
6.141600E+3	6.300000E+2
6.142000E+3	7.170000E+2
6.142400E+3	8.230000E+2
6.142800E+3	8.510000E+2
6.143200E+3	7.670000E+2
6.143600E+3	9.530000E+2
6.144000E+3	9.980000E+2
6.144400E+3	1.044000E+3
6.144800E+3	9.200000E+2
6.145200E+3	9.240000E+2
6.145600E+3	1.266000E+3
6.146000E+3	1.215000E+3
6.146400E+3	1.202000E+3
6.146800E+3	1.452000E+3
6.147200E+3	1.309000E+3
6.147600E+3	1.153000E+3
6.148000E+3	9.690000E+2
6.148400E+3	9.230000E+2
6.148800E+3	8.560000E+2
6.149200E+3	7.920000E+2
6.149600E+3	7.890000E+2
6.150000E+3	7.640000E+2
6.150400E+3	7.450000E+2
6.150800E+3	6.180000E+2
6.151200E+3	7.120000E+2
6.151600E+3	5.140000E+2
6.152000E+3	5.720000E+2
6.152400E+3	5.930000E+2
6.152800E+3	5.820000E+2
6.153200E+3	6.890000E+2
6.153600E+3	6.170000E+2
6.154000E+3	5.460000E+2
6.154400E+3	5.690000E+2
6.154800E+3	5.540000E+2
6.155200E+3	6.220000E+2
6.155600E+3	5.590000E+2
6.156000E+3	5.320000E+2
6.156400E+3	6.760000E+2
6.156800E+3	5.970000E+2
6.157200E+3	5.440000E+2
6.157600E+3	6.020000E+2
6.158000E+3	6.480000E+2
6.158400E+3	6.990000E+2
6.158800E+3	6.600000E+2
6.159200E+3	6.530000E+2
6.159600E+3	6.290000E+2
6.160000E+3	6.530000E+2
6.160400E+3	8.120000E+2
6.160800E+3	7.400000E+2
6.161200E+3	5.650000E+2
6.161600E+3	7.070000E+2
6.162000E+3	7.560000E+2
6.162400E+3	7.030000E+2
6.162800E+3	7.750000E+2
6.163200E+3	7.830000E+2
6.163600E+3	7.720000E+2
6.164000E+3	6.180000E+2
6.164400E+3	8.550000E+2
6.164800E+3	7.870000E+2
6.165200E+3	8.360000E+2
6.165600E+3	6.790000E+2
6.166000E+3	7.740000E+2
6.166400E+3	7.450000E+2
6.166800E+3	6.800000E+2
6.167200E+3	7.500000E+2
6.167600E+3	6.600000E+2
6.168000E+3	6.790000E+2
6.168400E+3	7.140000E+2
6.168800E+3	6.500000E+2
6.169200E+3	7.220000E+2
6.169600E+3	7.150000E+2
6.170000E+3	6.930000E+2
6.170400E+3	6.740000E+2
6.170800E+3	7.050000E+2
6.171200E+3	6.550000E+2
6.171600E+3	6.430000E+2
6.172000E+3	7.860000E+2
6.172400E+3	7.280000E+2
6.172800E+3	6.810000E+2
6.173200E+3	6.480000E+2
6.173600E+3	8.430000E+2
6.174000E+3	6.760000E+2
6.174400E+3	6.840000E+2
6.174800E+3	6.250000E+2
6.175200E+3	7.680000E+2
6.175600E+3	7.750000E+2
6.176000E+3	8.040000E+2
6.176400E+3	8.350000E+2
6.176800E+3	7.550000E+2
6.177200E+3	7.710000E+2
6.177600E+3	7.690000E+2
6.178000E+3	8.380000E+2
6.178400E+3	7.950000E+2
6.178800E+3	9.120000E+2
6.179200E+3	7.120000E+2
6.179600E+3	8.370000E+2
6.180000E+3	9.270000E+2
6.180400E+3	8.910000E+2
6.180800E+3	9.090000E+2
6.181200E+3	9.580000E+2
6.181600E+3	8.740000E+2
6.182000E+3	1.023000E+3
6.182400E+3	1.055000E+3
6.182800E+3	9.890000E+2
6.183200E+3	9.090000E+2
6.183600E+3	9.710000E+2
6.184000E+3	1.033000E+3
6.184400E+3	1.086000E+3
6.184800E+3	9.520000E+2
6.185200E+3	9.990000E+2
6.185600E+3	9.290000E+2
6.186000E+3	8.300000E+2
6.186400E+3	9.240000E+2
6.186800E+3	8.700000E+2
6.187200E+3	8.970000E+2
6.187600E+3	7.830000E+2
6.188000E+3	8.660000E+2
6.188400E+3	8.700000E+2
6.188800E+3	8.180000E+2
6.189200E+3	8.990000E+2
6.189600E+3	8.970000E+2
6.190000E+3	8.700000E+2
6.190400E+3	9.450000E+2
6.190800E+3	8.670000E+2
6.191200E+3	7.630000E+2
6.191600E+3	8.600000E+2
6.192000E+3	9.460000E+2
6.192400E+3	9.420000E+2
6.192800E+3	8.350000E+2
6.193200E+3	9.770000E+2
6.193600E+3	9.000000E+2
6.194000E+3	8.090000E+2
6.194400E+3	1.049000E+3
6.194800E+3	1.078000E+3
6.195200E+3	1.058000E+3
6.195600E+3	1.025000E+3
6.196000E+3	8.890000E+2
6.196400E+3	9.340000E+2
6.196800E+3	8.310000E+2
6.197200E+3	1.012000E+3
6.197600E+3	9.860000E+2
6.198000E+3	9.160000E+2
6.198400E+3	1.052000E+3
6.198800E+3	9.900000E+2
6.199200E+3	1.071000E+3
6.199600E+3	9.410000E+2
6.200000E+3	9.010000E+2
6.200400E+3	9.930000E+2
6.200800E+3	8.760000E+2
6.201200E+3	1.015000E+3
6.201600E+3	9.010000E+2
6.202000E+3	1.079000E+3
6.202400E+3	9.430000E+2
6.202800E+3	1.132000E+3
6.203200E+3	1.103000E+3
6.203600E+3	1.013000E+3
6.204000E+3	1.184000E+3
6.204400E+3	1.051000E+3
6.204800E+3	1.036000E+3
6.205200E+3	1.038000E+3
6.205600E+3	9.770000E+2
6.206000E+3	1.097000E+3
6.206400E+3	1.041000E+3
6.206800E+3	1.031000E+3
6.207200E+3	1.002000E+3
6.207600E+3	1.157000E+3
6.208000E+3	9.560000E+2
6.208400E+3	1.126000E+3
6.208800E+3	1.158000E+3
6.209200E+3	1.029000E+3
6.209600E+3	1.208000E+3
6.210000E+3	1.096000E+3
6.210400E+3	1.125000E+3
6.210800E+3	1.043000E+3
6.211200E+3	1.304000E+3
6.211600E+3	1.263000E+3
6.212000E+3	1.169000E+3
6.212400E+3	1.366000E+3
6.212800E+3	1.188000E+3
6.213200E+3	1.303000E+3
6.213600E+3	1.338000E+3
6.214000E+3	1.317000E+3
6.214400E+3	1.306000E+3
6.214800E+3	1.392000E+3
6.215200E+3	1.150000E+3
6.215600E+3	1.401000E+3
6.216000E+3	1.275000E+3
6.216400E+3	1.518000E+3
6.216800E+3	1.251000E+3
6.217200E+3	1.233000E+3
6.217600E+3	1.197000E+3
6.218000E+3	1.262000E+3
6.218400E+3	1.251000E+3
6.218800E+3	1.144000E+3
6.219200E+3	1.369000E+3
6.219600E+3	1.389000E+3
6.220000E+3	1.344000E+3
6.220400E+3	1.162000E+3
6.220800E+3	1.283000E+3
6.221200E+3	1.342000E+3
6.221600E+3	1.153000E+3
6.222000E+3	1.307000E+3
6.222400E+3	1.324000E+3
6.222800E+3	1.330000E+3
6.223200E+3	1.217000E+3
6.223600E+3	1.467000E+3
6.224000E+3	1.220000E+3
6.224400E+3	1.500000E+3
6.224800E+3	1.379000E+3
6.225200E+3	1.422000E+3
6.225600E+3	1.328000E+3
6.226000E+3	1.227000E+3
6.226400E+3	1.313000E+3
6.226800E+3	1.408000E+3
6.227200E+3	1.368000E+3
6.227600E+3	1.239000E+3
6.228000E+3	1.441000E+3
6.228400E+3	1.457000E+3
6.228800E+3	1.413000E+3
6.229200E+3	1.393000E+3
6.229600E+3	1.403000E+3
6.230000E+3	1.337000E+3
6.230400E+3	1.246000E+3
6.230800E+3	1.555000E+3
6.231200E+3	1.400000E+3
6.231600E+3	1.390000E+3
6.232000E+3	1.595000E+3
6.232400E+3	1.427000E+3
6.232800E+3	1.660000E+3
6.233200E+3	1.554000E+3
6.233600E+3	1.594000E+3
6.234000E+3	1.838000E+3
6.234400E+3	1.492000E+3
6.234800E+3	1.624000E+3
6.235200E+3	1.567000E+3
6.235600E+3	1.532000E+3
6.236000E+3	1.527000E+3
6.236400E+3	1.510000E+3
6.236800E+3	1.713000E+3
6.237200E+3	1.854000E+3
6.237600E+3	1.670000E+3
6.238000E+3	1.708000E+3
6.238400E+3	1.694000E+3
6.238800E+3	1.718000E+3
6.239200E+3	1.678000E+3
6.239600E+3	1.729000E+3
6.240000E+3	1.639000E+3
6.240400E+3	1.979000E+3
6.240800E+3	1.910000E+3
6.241200E+3	2.021000E+3
6.241600E+3	1.804000E+3
6.242000E+3	2.310000E+3
6.242400E+3	2.608000E+3
6.242800E+3	3.371000E+3
6.243200E+3	3.959000E+3
6.243600E+3	4.713000E+3
6.244000E+3	4.709000E+3
6.244400E+3	4.722000E+3
6.244800E+3	4.033000E+3
6.245200E+3	3.931000E+3
6.245600E+3	3.141000E+3
6.246000E+3	2.819000E+3
6.246400E+3	2.552000E+3
6.246800E+3	2.475000E+3
6.247200E+3	2.155000E+3
6.247600E+3	1.893000E+3
6.248000E+3	1.840000E+3
6.248400E+3	1.674000E+3
6.248800E+3	1.817000E+3
6.249200E+3	1.893000E+3
6.249600E+3	1.889000E+3
6.250000E+3	1.816000E+3
