251.000	1.000	0.400	6600.000	6700.000
6.601000E+3	4.100000E+1
6.601400E+3	6.800000E+1
6.601800E+3	3.900000E+1
6.602200E+3	4.300000E+1
6.602600E+3	3.300000E+1
6.603000E+3	4.300000E+1
6.603400E+3	3.200000E+1
6.603800E+3	4.200000E+1
6.604200E+3	3.100000E+1
6.604600E+3	5.400000E+1
6.605000E+3	6.500000E+1
6.605400E+3	2.900000E+1
6.605800E+3	3.500000E+1
6.606200E+3	6.700000E+1
6.606600E+3	3.700000E+1
6.607000E+3	5.100000E+1
6.607400E+3	3.000000E+1
6.607800E+3	3.300000E+1
6.608200E+3	3.400000E+1
6.608600E+3	2.400000E+1
6.609000E+3	3.600000E+1
6.609400E+3	4.200000E+1
6.609800E+3	4.800000E+1
6.610200E+3	3.100000E+1
6.610600E+3	3.400000E+1
6.611000E+3	2.500000E+1
6.611400E+3	5.300000E+1
6.611800E+3	1.700000E+1
6.612200E+3	6.500000E+1
6.612600E+3	4.100000E+1
6.613000E+3	4.500000E+1
6.613400E+3	5.800000E+1
6.613800E+3	4.500000E+1
6.614200E+3	5.300000E+1
6.614600E+3	6.300000E+1
6.615000E+3	1.900000E+1
6.615400E+3	2.000000E+1
6.615800E+3	3.400000E+1
6.616200E+3	3.200000E+1
6.616600E+3	1.700000E+1
6.617000E+3	5.100000E+1
6.617400E+3	1.000000E+1
6.617800E+3	2.900000E+1
6.618200E+3	4.100000E+1
6.618600E+3	5.600000E+1
6.619000E+3	3.300000E+1
6.619400E+3	2.200000E+1
6.619800E+3	1.500000E+1
6.620200E+3	4.200000E+1
6.620600E+3	3.500000E+1
6.621000E+3	3.200000E+1
6.621400E+3	3.700000E+1
6.621800E+3	4.700000E+1
6.622200E+3	2.800000E+1
6.622600E+3	3.600000E+1
6.623000E+3	8.000000E+0
6.623400E+3	5.100000E+1
6.623800E+3	3.500000E+1
6.624200E+3	2.700000E+1
6.624600E+3	4.100000E+1
6.625000E+3	1.700000E+1
6.625400E+3	2.300000E+1
6.625800E+3	3.100000E+1
6.626200E+3	4.400000E+1
6.626600E+3	1.700000E+1
6.627000E+3	2.400000E+1
6.627400E+3	1.900000E+1
6.627800E+3	4.200000E+1
6.628200E+3	1.800000E+1
6.628600E+3	3.600000E+1
6.629000E+3	2.700000E+1
6.629400E+3	2.200000E+1
6.629800E+3	1.900000E+1
6.630200E+3	2.400000E+1
6.630600E+3	3.200000E+1
6.631000E+3	2.500000E+1
6.631400E+3	3.100000E+1
6.631800E+3	3.800000E+1
6.632200E+3	4.500000E+1
6.632600E+3	1.200000E+1
6.633000E+3	3.900000E+1
6.633400E+3	6.600000E+1
6.633800E+3	2.700000E+1
6.634200E+3	4.400000E+1
6.634600E+3	5.100000E+1
6.635000E+3	3.000000E+1
6.635400E+3	3.400000E+1
6.635800E+3	2.000000E+1
6.636200E+3	3.400000E+1
6.636600E+3	4.700000E+1
6.637000E+3	4.900000E+1
6.637400E+3	5.000000E+1
6.637800E+3	2.300000E+1
6.638200E+3	3.400000E+1
6.638600E+3	4.200000E+1
6.639000E+3	2.700000E+1
6.639400E+3	3.800000E+1
6.639800E+3	6.000000E+1
6.640200E+3	6.500000E+1
6.640600E+3	1.100000E+1
6.641000E+3	3.400000E+1
6.641400E+3	4.400000E+1
6.641800E+3	2.700000E+1
6.642200E+3	2.300000E+1
6.642600E+3	4.100000E+1
6.643000E+3	2.500000E+1
6.643400E+3	2.500000E+1
6.643800E+3	3.200000E+1
6.644200E+3	4.400000E+1
6.644600E+3	2.200000E+1
6.645000E+3	3.000000E+1
6.645400E+3	2.600000E+1
6.645800E+3	4.600000E+1
6.646200E+3	2.900000E+1
6.646600E+3	1.400000E+1
6.647000E+3	5.000000E+1
6.647400E+3	3.100000E+1
6.647800E+3	2.700000E+1
6.648200E+3	2.100000E+1
6.648600E+3	4.900000E+1
6.649000E+3	3.200000E+1
6.649400E+3	5.000000E+1
6.649800E+3	4.100000E+1
6.650200E+3	3.700000E+1
6.650600E+3	3.400000E+1
6.651000E+3	1.800000E+1
6.651400E+3	2.500000E+1
6.651800E+3	3.100000E+1
6.652200E+3	3.700000E+1
6.652600E+3	2.500000E+1
6.653000E+3	3.200000E+1
6.653400E+3	3.200000E+1
6.653800E+3	2.600000E+1
6.654200E+3	4.500000E+1
6.654600E+3	3.700000E+1
6.655000E+3	3.500000E+1
6.655400E+3	3.700000E+1
6.655800E+3	2.400000E+1
6.656200E+3	2.500000E+1
6.656600E+3	3.100000E+1
6.657000E+3	1.600000E+1
6.657400E+3	6.600000E+1
6.657800E+3	6.200000E+1
6.658200E+3	6.700000E+1
6.658600E+3	4.800000E+1
6.659000E+3	4.100000E+1
6.659400E+3	6.100000E+1
6.659800E+3	6.900000E+1
6.660200E+3	5.900000E+1
6.660600E+3	3.600000E+1
6.661000E+3	4.600000E+1
6.661400E+3	4.100000E+1
6.661800E+3	4.900000E+1
6.662200E+3	4.000000E+1
6.662600E+3	5.200000E+1
6.663000E+3	2.800000E+1
6.663400E+3	4.600000E+1
6.663800E+3	5.800000E+1
6.664200E+3	3.900000E+1
6.664600E+3	4.900000E+1
6.665000E+3	4.200000E+1
6.665400E+3	4.700000E+1
6.665800E+3	1.700000E+1
6.666200E+3	2.800000E+1
6.666600E+3	5.300000E+1
6.667000E+3	3.600000E+1
6.667400E+3	3.200000E+1
6.667800E+3	4.200000E+1
6.668200E+3	2.200000E+1
6.668600E+3	3.800000E+1
6.669000E+3	2.900000E+1
6.669400E+3	5.900000E+1
6.669800E+3	1.800000E+1
6.670200E+3	4.500000E+1
6.670600E+3	5.500000E+1
6.671000E+3	4.600000E+1
6.671400E+3	5.000000E+1
6.671800E+3	4.500000E+1
6.672200E+3	1.030000E+2
6.672600E+3	5.400000E+1
6.673000E+3	2.500000E+1
6.673400E+3	1.430000E+2
6.673800E+3	7.600000E+1
6.674200E+3	5.600000E+1
6.674600E+3	1.110000E+2
6.675000E+3	1.100000E+2
6.675400E+3	1.200000E+2
6.675800E+3	1.220000E+2
6.676200E+3	1.200000E+2
6.676600E+3	1.400000E+2
6.677000E+3	1.010000E+2
6.677400E+3	1.590000E+2
6.677800E+3	1.770000E+2
6.678200E+3	1.430000E+2
6.678600E+3	7.400000E+1
6.679000E+3	6.900000E+1
6.679400E+3	6.400000E+1
6.679800E+3	3.600000E+1
6.680200E+3	4.000000E+1
6.680600E+3	3.300000E+1
6.681000E+3	4.400000E+1
6.681400E+3	4.900000E+1
6.681800E+3	3.600000E+1
6.682200E+3	4.300000E+1
6.682600E+3	5.600000E+1
6.683000E+3	4.900000E+1
6.683400E+3	1.100000E+1
6.683800E+3	3.000000E+1
6.684200E+3	5.200000E+1
6.684600E+3	2.900000E+1
6.685000E+3	1.500000E+1
6.685400E+3	4.000000E+1
6.685800E+3	2.200000E+1
6.686200E+3	2.500000E+1
6.686600E+3	3.200000E+1
6.687000E+3	2.900000E+1
6.687400E+3	4.000000E+1
6.687800E+3	2.500000E+1
6.688200E+3	2.000000E+1
6.688600E+3	3.100000E+1
6.689000E+3	3.400000E+1
6.689400E+3	1.900000E+1
6.689800E+3	4.500000E+1
6.690200E+3	1.700000E+1
6.690600E+3	4.000000E+1
6.691000E+3	3.200000E+1
6.691400E+3	2.300000E+1
6.691800E+3	1.600000E+1
6.692200E+3	1.900000E+1
6.692600E+3	2.200000E+1
6.693000E+3	4.600000E+1
6.693400E+3	5.000000E+0
6.693800E+3	4.100000E+1
6.694200E+3	5.600000E+1
6.694600E+3	3.800000E+1
6.695000E+3	4.400000E+1
6.695400E+3	2.800000E+1
6.695800E+3	4.800000E+1
6.696200E+3	2.800000E+1
6.696600E+3	2.500000E+1
6.697000E+3	2.200000E+1
6.697400E+3	1.900000E+1
6.697800E+3	1.800000E+1
6.698200E+3	4.300000E+1
6.698600E+3	3.300000E+1
6.699000E+3	3.100000E+1
6.699400E+3	3.200000E+1
6.699800E+3	2.400000E+1
6.700200E+3	2.600000E+1
6.700600E+3	1.700000E+1
6.701000E+3	3.500000E+1
