451.000	1.000	0.400	6400.000	6580.000
6.400000E+3	2.200000E+1
6.400400E+3	2.300000E+1
6.400800E+3	4.000000E+1
6.401200E+3	6.000000E+1
6.401600E+3	3.500000E+1
6.402000E+3	4.500000E+1
6.402400E+3	2.400000E+1
6.402800E+3	7.400000E+1
6.403200E+3	3.400000E+1
6.403600E+3	3.200000E+1
6.404000E+3	4.000000E+1
6.404400E+3	2.900000E+1
6.404800E+3	3.900000E+1
6.405200E+3	4.500000E+1
6.405600E+3	2.700000E+1
6.406000E+3	8.100000E+1
6.406400E+3	3.100000E+1
6.406800E+3	3.800000E+1
6.407200E+3	4.800000E+1
6.407600E+3	1.900000E+1
6.408000E+3	4.600000E+1
6.408400E+3	2.400000E+1
6.408800E+3	2.900000E+1
6.409200E+3	3.700000E+1
6.409600E+3	3.200000E+1
6.410000E+3	3.500000E+1
6.410400E+3	2.000000E+1
6.410800E+3	1.700000E+1
6.411200E+3	2.100000E+1
6.411600E+3	4.000000E+1
6.412000E+3	3.800000E+1
6.412400E+3	3.100000E+1
6.412800E+3	1.500000E+1
6.413200E+3	2.800000E+1
6.413600E+3	2.400000E+1
6.414000E+3	2.000000E+1
6.414400E+3	2.700000E+1
6.414800E+3	6.000000E+0
6.415200E+3	3.000000E+1
6.415600E+3	3.700000E+1
6.416000E+3	2.800000E+1
6.416400E+3	1.700000E+1
6.416800E+3	2.400000E+1
6.417200E+3	5.700000E+1
6.417600E+3	4.700000E+1
6.418000E+3	3.500000E+1
6.418400E+3	4.100000E+1
6.418800E+3	4.900000E+1
6.419200E+3	3.600000E+1
6.419600E+3	5.600000E+1
6.420000E+3	5.100000E+1
6.420400E+3	2.800000E+1
6.420800E+3	3.300000E+1
6.421200E+3	3.800000E+1
6.421600E+3	1.900000E+1
6.422000E+3	2.500000E+1
6.422400E+3	2.200000E+1
6.422800E+3	4.700000E+1
6.423200E+3	3.100000E+1
6.423600E+3	3.600000E+1
6.424000E+3	3.600000E+1
6.424400E+3	3.600000E+1
6.424800E+3	1.900000E+1
6.425200E+3	2.900000E+1
6.425600E+3	2.900000E+1
6.426000E+3	6.200000E+1
6.426400E+3	6.300000E+1
6.426800E+3	6.300000E+1
6.427200E+3	2.600000E+1
6.427600E+3	1.300000E+1
6.428000E+3	4.900000E+1
6.428400E+3	3.200000E+1
6.428800E+3	7.100000E+1
6.429200E+3	4.500000E+1
6.429600E+3	4.100000E+1
6.430000E+3	3.500000E+1
6.430400E+3	2.900000E+1
6.430800E+3	4.300000E+1
6.431200E+3	3.400000E+1
6.431600E+3	3.300000E+1
6.432000E+3	4.300000E+1
6.432400E+3	3.100000E+1
6.432800E+3	4.300000E+1
6.433200E+3	3.200000E+1
6.433600E+3	2.700000E+1
6.434000E+3	4.000000E+1
6.434400E+3	3.300000E+1
6.434800E+3	5.200000E+1
6.435200E+3	2.400000E+1
6.435600E+3	2.500000E+1
6.436000E+3	1.800000E+1
6.436400E+3	4.800000E+1
6.436800E+3	1.200000E+1
6.437200E+3	3.500000E+1
6.437600E+3	2.200000E+1
6.438000E+3	2.400000E+1
6.438400E+3	3.800000E+1
6.438800E+3	2.500000E+1
6.439200E+3	3.000000E+1
6.439600E+3	2.200000E+1
6.440000E+3	4.800000E+1
6.440400E+3	4.400000E+1
6.440800E+3	0.000000E+0
6.441200E+3	4.600000E+1
6.441600E+3	3.300000E+1
6.442000E+3	5.000000E+1
6.442400E+3	5.200000E+1
6.442800E+3	3.900000E+1
6.443200E+3	2.900000E+1
6.443600E+3	3.000000E+1
6.444000E+3	2.300000E+1
6.444400E+3	2.200000E+1
6.444800E+3	1.900000E+1
6.445200E+3	4.200000E+1
6.445600E+3	3.300000E+1
6.446000E+3	3.100000E+1
6.446400E+3	3.400000E+1
6.446800E+3	2.200000E+1
6.447200E+3	5.000000E+1
6.447600E+3	2.800000E+1
6.448000E+3	3.100000E+1
6.448400E+3	2.600000E+1
6.448800E+3	1.500000E+1
6.449200E+3	5.200000E+1
6.449600E+3	5.300000E+1
6.450000E+3	6.500000E+1
6.450400E+3	7.500000E+1
6.450800E+3	3.600000E+1
6.451200E+3	6.300000E+1
6.451600E+3	1.200000E+1
6.452000E+3	3.600000E+1
6.452400E+3	2.800000E+1
6.452800E+3	6.100000E+1
6.453200E+3	4.900000E+1
6.453600E+3	3.700000E+1
6.454000E+3	3.600000E+1
6.454400E+3	5.300000E+1
6.454800E+3	5.500000E+1
6.455200E+3	2.500000E+1
6.455600E+3	5.200000E+1
6.456000E+3	4.700000E+1
6.456400E+3	6.200000E+1
6.456800E+3	3.200000E+1
6.457200E+3	4.600000E+1
6.457600E+3	4.500000E+1
6.458000E+3	2.700000E+1
6.458400E+3	3.300000E+1
6.458800E+3	1.600000E+1
6.459200E+3	6.100000E+1
6.459600E+3	4.900000E+1
6.460000E+3	2.000000E+1
6.460400E+3	3.100000E+1
6.460800E+3	4.100000E+1
6.461200E+3	4.300000E+1
6.461600E+3	1.800000E+1
6.462000E+3	3.400000E+1
6.462400E+3	1.200000E+1
6.462800E+3	3.300000E+1
6.463200E+3	4.500000E+1
6.463600E+3	3.500000E+1
6.464000E+3	2.900000E+1
6.464400E+3	6.300000E+1
6.464800E+3	1.600000E+1
6.465200E+3	3.200000E+1
6.465600E+3	4.300000E+1
6.466000E+3	2.500000E+1
6.466400E+3	5.400000E+1
6.466800E+3	1.500000E+1
6.467200E+3	4.500000E+1
6.467600E+3	4.300000E+1
6.468000E+3	3.900000E+1
6.468400E+3	3.800000E+1
6.468800E+3	2.000000E+1
6.469200E+3	5.200000E+1
6.469600E+3	3.400000E+1
6.470000E+3	4.400000E+1
6.470400E+3	6.000000E+1
6.470800E+3	4.200000E+1
6.471200E+3	1.000000E+1
6.471600E+3	2.400000E+1
6.472000E+3	1.500000E+1
6.472400E+3	3.200000E+1
6.472800E+3	4.400000E+1
6.473200E+3	2.700000E+1
6.473600E+3	4.600000E+1
6.474000E+3	6.000000E+1
6.474400E+3	4.500000E+1
6.474800E+3	4.200000E+1
6.475200E+3	3.200000E+1
6.475600E+3	2.800000E+1
6.476000E+3	2.500000E+1
6.476400E+3	3.900000E+1
6.476800E+3	3.700000E+1
6.477200E+3	4.100000E+1
6.477600E+3	3.400000E+1
6.478000E+3	4.300000E+1
6.478400E+3	4.000000E+1
6.478800E+3	3.500000E+1
6.479200E+3	9.000000E+0
6.479600E+3	2.700000E+1
6.480000E+3	5.800000E+1
6.480400E+3	2.300000E+1
6.480800E+3	2.500000E+1
6.481200E+3	2.300000E+1
6.481600E+3	1.300000E+1
6.482000E+3	1.400000E+1
6.482400E+3	1.800000E+1
6.482800E+3	4.600000E+1
6.483200E+3	3.000000E+1
6.483600E+3	3.900000E+1
6.484000E+3	3.300000E+1
6.484400E+3	1.900000E+1
6.484800E+3	5.600000E+1
6.485200E+3	7.000000E+0
6.485600E+3	3.600000E+1
6.486000E+3	2.800000E+1
6.486400E+3	1.800000E+1
6.486800E+3	4.200000E+1
6.487200E+3	2.900000E+1
6.487600E+3	5.700000E+1
6.488000E+3	2.800000E+1
6.488400E+3	2.300000E+1
6.488800E+3	1.000000E+1
6.489200E+3	4.100000E+1
6.489600E+3	4.000000E+1
6.490000E+3	5.600000E+1
6.490400E+3	4.900000E+1
6.490800E+3	1.600000E+1
6.491200E+3	3.900000E+1
6.491600E+3	2.900000E+1
6.492000E+3	2.200000E+1
6.492400E+3	1.500000E+1
6.492800E+3	2.800000E+1
6.493200E+3	4.500000E+1
6.493600E+3	3.200000E+1
6.494000E+3	2.200000E+1
6.494400E+3	4.200000E+1
6.494800E+3	3.800000E+1
6.495200E+3	4.000000E+1
6.495600E+3	1.500000E+1
6.496000E+3	5.400000E+1
6.496400E+3	4.400000E+1
6.496800E+3	5.800000E+1
6.497200E+3	5.200000E+1
6.497600E+3	4.300000E+1
6.498000E+3	5.600000E+1
6.498400E+3	1.800000E+1
6.498800E+3	2.300000E+1
6.499200E+3	1.200000E+1
6.499600E+3	3.400000E+1
6.500000E+3	2.300000E+1
6.500400E+3	2.300000E+1
6.500800E+3	4.700000E+1
6.501200E+3	1.700000E+1
6.501600E+3	3.400000E+1
6.502000E+3	6.700000E+1
6.502400E+3	4.000000E+1
6.502800E+3	4.300000E+1
6.503200E+3	3.200000E+1
6.503600E+3	7.500000E+1
6.504000E+3	4.500000E+1
6.504400E+3	4.700000E+1
6.504800E+3	3.400000E+1
6.505200E+3	3.100000E+1
6.505600E+3	4.800000E+1
6.506000E+3	3.900000E+1
6.506400E+3	4.700000E+1
6.506800E+3	4.700000E+1
6.507200E+3	3.600000E+1
6.507600E+3	5.700000E+1
6.508000E+3	5.200000E+1
6.508400E+3	3.900000E+1
6.508800E+3	4.200000E+1
6.509200E+3	3.700000E+1
6.509600E+3	3.400000E+1
6.510000E+3	4.200000E+1
6.510400E+3	3.000000E+1
6.510800E+3	2.500000E+1
6.511200E+3	3.900000E+1
6.511600E+3	2.800000E+1
6.512000E+3	3.300000E+1
6.512400E+3	3.100000E+1
6.512800E+3	3.300000E+1
6.513200E+3	3.100000E+1
6.513600E+3	5.100000E+1
6.514000E+3	3.000000E+1
6.514400E+3	4.000000E+1
6.514800E+3	1.900000E+1
6.515200E+3	2.100000E+1
6.515600E+3	1.200000E+1
6.516000E+3	4.000000E+1
6.516400E+3	5.800000E+1
6.516800E+3	2.500000E+1
6.517200E+3	4.700000E+1
6.517600E+3	4.500000E+1
6.518000E+3	6.400000E+1
6.518400E+3	2.900000E+1
6.518800E+3	3.000000E+1
6.519200E+3	1.500000E+1
6.519600E+3	1.700000E+1
6.520000E+3	3.200000E+1
6.520400E+3	2.800000E+1
6.520800E+3	4.700000E+1
6.521200E+3	5.500000E+1
6.521600E+3	3.200000E+1
6.522000E+3	2.600000E+1
6.522400E+3	2.700000E+1
6.522800E+3	3.300000E+1
6.523200E+3	2.100000E+1
6.523600E+3	4.800000E+1
6.524000E+3	5.100000E+1
6.524400E+3	3.200000E+1
6.524800E+3	4.600000E+1
6.525200E+3	9.000000E+0
6.525600E+3	3.500000E+1
6.526000E+3	2.800000E+1
6.526400E+3	3.800000E+1
6.526800E+3	2.500000E+1
6.527200E+3	2.800000E+1
6.527600E+3	1.300000E+1
6.528000E+3	4.000000E+1
6.528400E+3	2.900000E+1
6.528800E+3	5.600000E+1
6.529200E+3	2.500000E+1
6.529600E+3	5.900000E+1
6.530000E+3	4.300000E+1
6.530400E+3	2.400000E+1
6.530800E+3	3.900000E+1
6.531200E+3	1.200000E+1
6.531600E+3	2.600000E+1
6.532000E+3	6.500000E+1
6.532400E+3	5.400000E+1
6.532800E+3	4.300000E+1
6.533200E+3	3.200000E+1
6.533600E+3	4.800000E+1
6.534000E+3	4.100000E+1
6.534400E+3	6.200000E+1
6.534800E+3	4.800000E+1
6.535200E+3	1.500000E+1
6.535600E+3	2.000000E+1
6.536000E+3	4.400000E+1
6.536400E+3	6.000000E+1
6.536800E+3	3.400000E+1
6.537200E+3	4.100000E+1
6.537600E+3	3.000000E+1
6.538000E+3	4.100000E+1
6.538400E+3	4.400000E+1
6.538800E+3	3.000000E+1
6.539200E+3	3.300000E+1
6.539600E+3	2.000000E+1
6.540000E+3	6.100000E+1
6.540400E+3	1.900000E+1
6.540800E+3	4.500000E+1
6.541200E+3	4.300000E+1
6.541600E+3	3.800000E+1
6.542000E+3	4.900000E+1
6.542400E+3	1.200000E+1
6.542800E+3	4.600000E+1
6.543200E+3	2.700000E+1
6.543600E+3	3.200000E+1
6.544000E+3	3.600000E+1
6.544400E+3	1.800000E+1
6.544800E+3	3.400000E+1
6.545200E+3	3.200000E+1
6.545600E+3	2.700000E+1
6.546000E+3	2.500000E+1
6.546400E+3	2.600000E+1
6.546800E+3	4.600000E+1
6.547200E+3	2.000000E+1
6.547600E+3	3.300000E+1
6.548000E+3	4.100000E+1
6.548400E+3	5.900000E+1
6.548800E+3	2.700000E+1
6.549200E+3	2.700000E+1
6.549600E+3	1.800000E+1
6.550000E+3	4.100000E+1
6.550400E+3	1.500000E+1
6.550800E+3	1.600000E+1
6.551200E+3	2.500000E+1
6.551600E+3	2.100000E+1
6.552000E+3	3.500000E+1
6.552400E+3	3.600000E+1
6.552800E+3	1.500000E+1
6.553200E+3	2.000000E+1
6.553600E+3	3.000000E+1
6.554000E+3	1.600000E+1
6.554400E+3	2.600000E+1
6.554800E+3	3.100000E+1
6.555200E+3	1.000000E+1
6.555600E+3	3.400000E+1
6.556000E+3	3.200000E+1
6.556400E+3	3.600000E+1
6.556800E+3	1.500000E+1
6.557200E+3	3.400000E+1
6.557600E+3	2.800000E+1
6.558000E+3	4.500000E+1
6.558400E+3	3.500000E+1
6.558800E+3	3.500000E+1
6.559200E+3	4.700000E+1
6.559600E+3	1.900000E+1
6.560000E+3	2.900000E+1
6.560400E+3	2.200000E+1
6.560800E+3	2.400000E+1
6.561200E+3	1.500000E+1
6.561600E+3	3.700000E+1
6.562000E+3	3.100000E+1
6.562400E+3	7.500000E+1
6.562800E+3	2.400000E+1
6.563200E+3	4.800000E+1
6.563600E+3	3.800000E+1
6.564000E+3	1.200000E+1
6.564400E+3	2.500000E+1
6.564800E+3	3.300000E+1
6.565200E+3	4.400000E+1
6.565600E+3	5.700000E+1
6.566000E+3	2.100000E+1
6.566400E+3	2.700000E+1
6.566800E+3	4.200000E+1
6.567200E+3	0.000000E+0
6.567600E+3	3.300000E+1
6.568000E+3	1.900000E+1
6.568400E+3	2.700000E+1
6.568800E+3	5.700000E+1
6.569200E+3	3.800000E+1
6.569600E+3	3.800000E+1
6.570000E+3	2.100000E+1
6.570400E+3	2.400000E+1
6.570800E+3	2.700000E+1
6.571200E+3	4.900000E+1
6.571600E+3	2.900000E+1
6.572000E+3	4.200000E+1
6.572400E+3	5.200000E+1
6.572800E+3	5.000000E+1
6.573200E+3	4.600000E+1
6.573600E+3	2.300000E+1
6.574000E+3	2.500000E+1
6.574400E+3	5.000000E+1
6.574800E+3	2.000000E+1
6.575200E+3	2.700000E+1
6.575600E+3	4.400000E+1
6.576000E+3	1.300000E+1
6.576400E+3	6.100000E+1
6.576800E+3	2.200000E+1
6.577200E+3	3.100000E+1
6.577600E+3	5.800000E+1
6.578000E+3	8.300000E+1
6.578400E+3	1.100000E+1
6.578800E+3	2.900000E+1
6.579200E+3	7.100000E+1
6.579600E+3	2.800000E+1
6.580000E+3	4.800000E+1
