251.000	1.000	0.400	6400.000	6500.000
6.400000E+3	7.000000E+1
6.400400E+3	6.500000E+1
6.400800E+3	3.600000E+1
6.401200E+3	5.300000E+1
6.401600E+3	4.700000E+1
6.402000E+3	4.900000E+1
6.402400E+3	8.100000E+1
6.402800E+3	4.100000E+1
6.403200E+3	4.800000E+1
6.403600E+3	6.100000E+1
6.404000E+3	7.000000E+1
6.404400E+3	6.000000E+1
6.404800E+3	3.700000E+1
6.405200E+3	5.300000E+1
6.405600E+3	2.700000E+1
6.406000E+3	3.500000E+1
6.406400E+3	3.100000E+1
6.406800E+3	3.400000E+1
6.407200E+3	4.000000E+1
6.407600E+3	6.200000E+1
6.408000E+3	6.800000E+1
6.408400E+3	6.500000E+1
6.408800E+3	3.400000E+1
6.409200E+3	5.800000E+1
6.409600E+3	6.400000E+1
6.410000E+3	5.500000E+1
6.410400E+3	4.200000E+1
6.410800E+3	2.000000E+1
6.411200E+3	4.300000E+1
6.411600E+3	5.900000E+1
6.412000E+3	5.600000E+1
6.412400E+3	9.500000E+1
6.412800E+3	5.400000E+1
6.413200E+3	3.500000E+1
6.413600E+3	2.700000E+1
6.414000E+3	5.700000E+1
6.414400E+3	3.800000E+1
6.414800E+3	4.200000E+1
6.415200E+3	6.300000E+1
6.415600E+3	5.100000E+1
6.416000E+3	3.900000E+1
6.416400E+3	8.100000E+1
6.416800E+3	2.200000E+1
6.417200E+3	5.100000E+1
6.417600E+3	3.700000E+1
6.418000E+3	6.600000E+1
6.418400E+3	5.500000E+1
6.418800E+3	6.700000E+1
6.419200E+3	5.300000E+1
6.419600E+3	4.400000E+1
6.420000E+3	8.800000E+1
6.420400E+3	8.300000E+1
6.420800E+3	6.400000E+1
6.421200E+3	8.000000E+1
6.421600E+3	1.200000E+2
6.422000E+3	3.100000E+1
6.422400E+3	6.300000E+1
6.422800E+3	5.800000E+1
6.423200E+3	3.500000E+1
6.423600E+3	7.000000E+1
6.424000E+3	9.800000E+1
6.424400E+3	3.000000E+1
6.424800E+3	5.700000E+1
6.425200E+3	4.300000E+1
6.425600E+3	3.700000E+1
6.426000E+3	7.600000E+1
6.426400E+3	5.100000E+1
6.426800E+3	5.600000E+1
6.427200E+3	5.100000E+1
6.427600E+3	3.200000E+1
6.428000E+3	3.900000E+1
6.428400E+3	7.100000E+1
6.428800E+3	2.200000E+1
6.429200E+3	5.500000E+1
6.429600E+3	5.000000E+1
6.430000E+3	4.400000E+1
6.430400E+3	4.200000E+1
6.430800E+3	2.700000E+1
6.431200E+3	5.000000E+1
6.431600E+3	6.300000E+1
6.432000E+3	4.000000E+1
6.432400E+3	3.000000E+1
6.432800E+3	4.500000E+1
6.433200E+3	4.200000E+1
6.433600E+3	4.000000E+1
6.434000E+3	3.900000E+1
6.434400E+3	5.600000E+1
6.434800E+3	3.900000E+1
6.435200E+3	4.700000E+1
6.435600E+3	2.800000E+1
6.436000E+3	2.400000E+1
6.436400E+3	4.500000E+1
6.436800E+3	5.000000E+1
6.437200E+3	5.600000E+1
6.437600E+3	4.100000E+1
6.438000E+3	6.700000E+1
6.438400E+3	4.100000E+1
6.438800E+3	4.400000E+1
6.439200E+3	6.600000E+1
6.439600E+3	5.300000E+1
6.440000E+3	5.900000E+1
6.440400E+3	5.200000E+1
6.440800E+3	7.000000E+1
6.441200E+3	5.900000E+1
6.441600E+3	3.100000E+1
6.442000E+3	6.500000E+1
6.442400E+3	5.100000E+1
6.442800E+3	4.700000E+1
6.443200E+3	3.900000E+1
6.443600E+3	3.900000E+1
6.444000E+3	5.900000E+1
6.444400E+3	4.300000E+1
6.444800E+3	2.400000E+1
6.445200E+3	2.900000E+1
6.445600E+3	4.900000E+1
6.446000E+3	3.500000E+1
6.446400E+3	4.600000E+1
6.446800E+3	4.200000E+1
6.447200E+3	3.800000E+1
6.447600E+3	5.100000E+1
6.448000E+3	6.800000E+1
6.448400E+3	7.300000E+1
6.448800E+3	6.000000E+1
6.449200E+3	7.000000E+1
6.449600E+3	4.600000E+1
6.450000E+3	5.700000E+1
6.450400E+3	4.300000E+1
6.450800E+3	3.400000E+1
6.451200E+3	2.300000E+1
6.451600E+3	6.000000E+1
6.452000E+3	6.000000E+1
6.452400E+3	3.300000E+1
6.452800E+3	3.300000E+1
6.453200E+3	4.800000E+1
6.453600E+3	1.000000E+1
6.454000E+3	3.300000E+1
6.454400E+3	3.400000E+1
6.454800E+3	4.900000E+1
6.455200E+3	3.000000E+1
6.455600E+3	5.500000E+1
6.456000E+3	7.500000E+1
6.456400E+3	5.800000E+1
6.456800E+3	7.500000E+1
6.457200E+3	3.200000E+1
6.457600E+3	2.700000E+1
6.458000E+3	2.600000E+1
6.458400E+3	6.500000E+1
6.458800E+3	3.900000E+1
6.459200E+3	6.900000E+1
6.459600E+3	3.300000E+1
6.460000E+3	3.700000E+1
6.460400E+3	4.900000E+1
6.460800E+3	5.500000E+1
6.461200E+3	5.500000E+1
6.461600E+3	5.100000E+1
6.462000E+3	2.900000E+1
6.462400E+3	3.200000E+1
6.462800E+3	6.600000E+1
6.463200E+3	4.900000E+1
6.463600E+3	3.200000E+1
6.464000E+3	5.600000E+1
6.464400E+3	7.000000E+1
6.464800E+3	4.000000E+1
6.465200E+3	5.300000E+1
6.465600E+3	8.300000E+1
6.466000E+3	3.700000E+1
6.466400E+3	2.600000E+1
6.466800E+3	4.000000E+1
6.467200E+3	2.500000E+1
6.467600E+3	3.600000E+1
6.468000E+3	2.500000E+1
6.468400E+3	3.100000E+1
6.468800E+3	3.600000E+1
6.469200E+3	5.100000E+1
6.469600E+3	3.700000E+1
6.470000E+3	5.500000E+1
6.470400E+3	3.500000E+1
6.470800E+3	4.900000E+1
6.471200E+3	4.600000E+1
6.471600E+3	5.000000E+1
6.472000E+3	4.400000E+1
6.472400E+3	3.200000E+1
6.472800E+3	4.900000E+1
6.473200E+3	2.300000E+1
6.473600E+3	5.700000E+1
6.474000E+3	2.600000E+1
6.474400E+3	2.800000E+1
6.474800E+3	3.800000E+1
6.475200E+3	5.000000E+1
6.475600E+3	5.400000E+1
6.476000E+3	4.700000E+1
6.476400E+3	3.100000E+1
6.476800E+3	4.800000E+1
6.477200E+3	5.000000E+1
6.477600E+3	3.200000E+1
6.478000E+3	3.200000E+1
6.478400E+3	4.800000E+1
6.478800E+3	4.400000E+1
6.479200E+3	3.200000E+1
6.479600E+3	3.300000E+1
6.480000E+3	3.200000E+1
6.480400E+3	4.200000E+1
6.480800E+3	5.300000E+1
6.481200E+3	5.100000E+1
6.481600E+3	3.500000E+1
6.482000E+3	1.700000E+1
6.482400E+3	2.800000E+1
6.482800E+3	4.100000E+1
6.483200E+3	4.800000E+1
6.483600E+3	3.500000E+1
6.484000E+3	3.700000E+1
6.484400E+3	3.300000E+1
6.484800E+3	3.100000E+1
6.485200E+3	4.300000E+1
6.485600E+3	6.700000E+1
6.486000E+3	6.200000E+1
6.486400E+3	2.800000E+1
6.486800E+3	6.300000E+1
6.487200E+3	5.200000E+1
6.487600E+3	4.300000E+1
6.488000E+3	0.000000E+0
