251.000	1.000	0.400	6150.000	6250.000
6.150000E+3	3.200000E+1
6.150400E+3	3.000000E+1
6.150800E+3	3.500000E+1
6.151200E+3	3.700000E+1
6.151600E+3	5.600000E+1
6.152000E+3	1.700000E+1
6.152400E+3	4.200000E+1
6.152800E+3	3.100000E+1
6.153200E+3	3.100000E+1
6.153600E+3	4.500000E+1
6.154000E+3	3.400000E+1
6.154400E+3	3.000000E+1
6.154800E+3	3.000000E+1
6.155200E+3	2.900000E+1
6.155600E+3	7.300000E+1
6.156000E+3	3.700000E+1
6.156400E+3	7.100000E+1
6.156800E+3	5.300000E+1
6.157200E+3	2.300000E+1
6.157600E+3	8.300000E+1
6.158000E+3	3.200000E+1
6.158400E+3	8.700000E+1
6.158800E+3	4.600000E+1
6.159200E+3	3.100000E+1
6.159600E+3	4.000000E+1
6.160000E+3	3.000000E+1
6.160400E+3	4.100000E+1
6.160800E+3	4.100000E+1
6.161200E+3	4.100000E+1
6.161600E+3	3.600000E+1
6.162000E+3	2.500000E+1
6.162400E+3	4.600000E+1
6.162800E+3	3.500000E+1
6.163200E+3	9.500000E+1
6.163600E+3	5.100000E+1
6.164000E+3	4.100000E+1
6.164400E+3	5.000000E+1
6.164800E+3	4.200000E+1
6.165200E+3	2.600000E+1
6.165600E+3	3.200000E+1
6.166000E+3	4.600000E+1
6.166400E+3	5.600000E+1
6.166800E+3	5.500000E+1
6.167200E+3	4.300000E+1
6.167600E+3	4.100000E+1
6.168000E+3	2.000000E+1
6.168400E+3	3.200000E+1
6.168800E+3	2.700000E+1
6.169200E+3	1.600000E+1
6.169600E+3	5.100000E+1
6.170000E+3	3.100000E+1
6.170400E+3	5.600000E+1
6.170800E+3	2.400000E+1
6.171200E+3	2.200000E+1
6.171600E+3	3.900000E+1
6.172000E+3	6.000000E+1
6.172400E+3	5.900000E+1
6.172800E+3	5.700000E+1
6.173200E+3	5.700000E+1
6.173600E+3	1.800000E+1
6.174000E+3	4.600000E+1
6.174400E+3	3.800000E+1
6.174800E+3	4.200000E+1
6.175200E+3	4.100000E+1
6.175600E+3	6.100000E+1
6.176000E+3	4.100000E+1
6.176400E+3	5.100000E+1
6.176800E+3	3.000000E+1
6.177200E+3	3.200000E+1
6.177600E+3	6.500000E+1
6.178000E+3	3.600000E+1
6.178400E+3	4.800000E+1
6.178800E+3	2.900000E+1
6.179200E+3	4.800000E+1
6.179600E+3	2.200000E+1
6.180000E+3	5.200000E+1
6.180400E+3	2.700000E+1
6.180800E+3	6.700000E+1
6.181200E+3	7.000000E+1
6.181600E+3	6.000000E+1
6.182000E+3	3.300000E+1
6.182400E+3	3.900000E+1
6.182800E+3	3.000000E+1
6.183200E+3	5.700000E+1
6.183600E+3	2.900000E+1
6.184000E+3	8.400000E+1
6.184400E+3	5.800000E+1
6.184800E+3	6.100000E+1
6.185200E+3	5.900000E+1
6.185600E+3	0.000000E+0
6.186000E+3	4.300000E+1
6.186400E+3	3.000000E+1
6.186800E+3	7.200000E+1
6.187200E+3	4.500000E+1
6.187600E+3	4.800000E+1
6.188000E+3	5.900000E+1
6.188400E+3	2.500000E+1
6.188800E+3	3.800000E+1
6.189200E+3	3.200000E+1
6.189600E+3	6.100000E+1
6.190000E+3	4.800000E+1
6.190400E+3	3.500000E+1
6.190800E+3	4.200000E+1
6.191200E+3	7.900000E+1
6.191600E+3	4.700000E+1
6.192000E+3	2.100000E+1
6.192400E+3	3.800000E+1
6.192800E+3	7.500000E+1
6.193200E+3	6.300000E+1
6.193600E+3	7.000000E+1
6.194000E+3	4.800000E+1
6.194400E+3	7.300000E+1
6.194800E+3	5.100000E+1
6.195200E+3	3.300000E+1
6.195600E+3	3.800000E+1
6.196000E+3	6.200000E+1
6.196400E+3	3.500000E+1
6.196800E+3	5.200000E+1
6.197200E+3	4.300000E+1
6.197600E+3	4.100000E+1
6.198000E+3	2.700000E+1
6.198400E+3	6.700000E+1
6.198800E+3	6.100000E+1
6.199200E+3	4.600000E+1
6.199600E+3	2.400000E+1
6.200000E+3	5.400000E+1
6.200400E+3	2.500000E+1
6.200800E+3	9.000000E+1
6.201200E+3	5.100000E+1
6.201600E+3	5.200000E+1
6.202000E+3	5.400000E+1
6.202400E+3	4.800000E+1
6.202800E+3	8.000000E+1
6.203200E+3	3.900000E+1
6.203600E+3	3.400000E+1
6.204000E+3	6.500000E+1
6.204400E+3	5.900000E+1
6.204800E+3	6.800000E+1
6.205200E+3	3.700000E+1
6.205600E+3	6.300000E+1
6.206000E+3	4.500000E+1
6.206400E+3	4.800000E+1
6.206800E+3	4.900000E+1
6.207200E+3	4.200000E+1
6.207600E+3	6.200000E+1
6.208000E+3	5.000000E+1
6.208400E+3	7.900000E+1
6.208800E+3	3.400000E+1
6.209200E+3	3.900000E+1
6.209600E+3	8.600000E+1
6.210000E+3	2.700000E+1
6.210400E+3	3.900000E+1
6.210800E+3	6.000000E+1
6.211200E+3	6.100000E+1
6.211600E+3	5.000000E+1
6.212000E+3	5.200000E+1
6.212400E+3	3.500000E+1
6.212800E+3	6.100000E+1
6.213200E+3	5.700000E+1
6.213600E+3	7.600000E+1
6.214000E+3	1.800000E+1
6.214400E+3	5.500000E+1
6.214800E+3	6.600000E+1
6.215200E+3	3.900000E+1
6.215600E+3	7.800000E+1
6.216000E+3	6.100000E+1
6.216400E+3	6.100000E+1
6.216800E+3	9.100000E+1
6.217200E+3	5.400000E+1
6.217600E+3	6.400000E+1
6.218000E+3	6.100000E+1
6.218400E+3	3.800000E+1
6.218800E+3	8.500000E+1
6.219200E+3	7.100000E+1
6.219600E+3	4.100000E+1
6.220000E+3	2.700000E+1
6.220400E+3	3.900000E+1
6.220800E+3	4.500000E+1
6.221200E+3	4.800000E+1
6.221600E+3	3.900000E+1
6.222000E+3	2.400000E+1
6.222400E+3	7.000000E+1
6.222800E+3	6.800000E+1
6.223200E+3	4.000000E+1
6.223600E+3	2.100000E+1
6.224000E+3	3.700000E+1
6.224400E+3	6.900000E+1
6.224800E+3	5.700000E+1
6.225200E+3	8.400000E+1
6.225600E+3	5.400000E+1
6.226000E+3	7.700000E+1
6.226400E+3	3.600000E+1
6.226800E+3	6.400000E+1
6.227200E+3	3.200000E+1
6.227600E+3	7.400000E+1
6.228000E+3	3.300000E+1
6.228400E+3	6.000000E+1
6.228800E+3	3.200000E+1
6.229200E+3	7.100000E+1
6.229600E+3	4.500000E+1
6.230000E+3	7.500000E+1
6.230400E+3	5.300000E+1
6.230800E+3	3.100000E+1
6.231200E+3	3.300000E+1
6.231600E+3	5.900000E+1
6.232000E+3	3.800000E+1
6.232400E+3	6.700000E+1
6.232800E+3	5.000000E+1
6.233200E+3	6.900000E+1
6.233600E+3	2.900000E+1
6.234000E+3	5.100000E+1
6.234400E+3	4.900000E+1
6.234800E+3	4.600000E+1
6.235200E+3	4.000000E+1
6.235600E+3	3.800000E+1
6.236000E+3	4.800000E+1
6.236400E+3	4.000000E+1
6.236800E+3	6.900000E+1
6.237200E+3	6.800000E+1
6.237600E+3	4.900000E+1
6.238000E+3	8.500000E+1
6.238400E+3	5.400000E+1
6.238800E+3	6.000000E+1
6.239200E+3	5.000000E+1
6.239600E+3	7.600000E+1
6.240000E+3	5.400000E+1
6.240400E+3	5.000000E+1
6.240800E+3	7.200000E+1
6.241200E+3	1.800000E+1
6.241600E+3	3.800000E+1
6.242000E+3	9.500000E+1
6.242400E+3	5.500000E+1
6.242800E+3	1.050000E+2
6.243200E+3	8.000000E+1
6.243600E+3	8.300000E+1
6.244000E+3	3.900000E+1
6.244400E+3	4.800000E+1
6.244800E+3	3.000000E+1
6.245200E+3	4.000000E+1
6.245600E+3	1.050000E+2
6.246000E+3	5.900000E+1
6.246400E+3	3.800000E+1
6.246800E+3	7.100000E+1
6.247200E+3	4.600000E+1
6.247600E+3	7.200000E+1
6.248000E+3	2.200000E+1
6.248400E+3	4.300000E+1
6.248800E+3	0.000000E+0
