126.000	1.000	0.400	6200.000	6250.000
6.200000E+3	9.400000E+1
6.200400E+3	9.700000E+1
6.200800E+3	7.200000E+1
6.201200E+3	6.900000E+1
6.201600E+3	1.000000E+2
6.202000E+3	8.100000E+1
6.202400E+3	5.300000E+1
6.202800E+3	5.700000E+1
6.203200E+3	5.100000E+1
6.203600E+3	6.600000E+1
6.204000E+3	6.900000E+1
6.204400E+3	8.600000E+1
6.204800E+3	4.100000E+1
6.205200E+3	5.700000E+1
6.205600E+3	7.300000E+1
6.206000E+3	8.400000E+1
6.206400E+3	8.600000E+1
6.206800E+3	8.300000E+1
6.207200E+3	7.000000E+1
6.207600E+3	9.600000E+1
6.208000E+3	9.000000E+1
6.208400E+3	1.120000E+2
6.208800E+3	6.400000E+1
6.209200E+3	1.200000E+2
6.209600E+3	7.500000E+1
6.210000E+3	6.200000E+1
6.210400E+3	5.500000E+1
6.210800E+3	1.070000E+2
6.211200E+3	6.800000E+1
6.211600E+3	9.400000E+1
6.212000E+3	1.340000E+2
6.212400E+3	1.610000E+2
6.212800E+3	1.000000E+2
6.213200E+3	1.260000E+2
6.213600E+3	1.050000E+2
6.214000E+3	8.200000E+1
6.214400E+3	1.340000E+2
6.214800E+3	7.500000E+1
6.215200E+3	8.900000E+1
6.215600E+3	7.400000E+1
6.216000E+3	8.600000E+1
6.216400E+3	1.160000E+2
6.216800E+3	1.290000E+2
6.217200E+3	7.100000E+1
6.217600E+3	1.030000E+2
6.218000E+3	5.200000E+1
6.218400E+3	9.600000E+1
6.218800E+3	1.030000E+2
6.219200E+3	1.300000E+2
6.219600E+3	9.800000E+1
6.220000E+3	1.330000E+2
6.220400E+3	1.050000E+2
6.220800E+3	1.180000E+2
6.221200E+3	1.070000E+2
6.221600E+3	8.800000E+1
6.222000E+3	3.700000E+1
6.222400E+3	1.240000E+2
6.222800E+3	5.600000E+1
6.223200E+3	8.100000E+1
6.223600E+3	9.900000E+1
6.224000E+3	1.040000E+2
6.224400E+3	8.400000E+1
6.224800E+3	1.170000E+2
6.225200E+3	1.040000E+2
6.225600E+3	1.120000E+2
6.226000E+3	7.100000E+1
6.226400E+3	1.190000E+2
6.226800E+3	8.600000E+1
6.227200E+3	8.000000E+1
6.227600E+3	1.050000E+2
6.228000E+3	7.400000E+1
6.228400E+3	1.000000E+2
6.228800E+3	8.600000E+1
6.229200E+3	9.900000E+1
6.229600E+3	9.600000E+1
6.230000E+3	1.380000E+2
6.230400E+3	1.120000E+2
6.230800E+3	7.800000E+1
6.231200E+3	1.180000E+2
6.231600E+3	1.030000E+2
6.232000E+3	1.230000E+2
6.232400E+3	1.060000E+2
6.232800E+3	8.000000E+1
6.233200E+3	8.500000E+1
6.233600E+3	1.200000E+2
6.234000E+3	7.200000E+1
6.234400E+3	8.100000E+1
6.234800E+3	7.900000E+1
6.235200E+3	8.300000E+1
6.235600E+3	8.900000E+1
6.236000E+3	7.700000E+1
6.236400E+3	1.010000E+2
6.236800E+3	7.000000E+1
6.237200E+3	1.280000E+2
6.237600E+3	1.510000E+2
6.238000E+3	1.090000E+2
6.238400E+3	6.100000E+1
6.238800E+3	1.170000E+2
6.239200E+3	9.900000E+1
6.239600E+3	1.340000E+2
6.240000E+3	1.630000E+2
6.240400E+3	6.500000E+1
6.240800E+3	9.500000E+1
6.241200E+3	1.250000E+2
6.241600E+3	1.460000E+2
6.242000E+3	9.200000E+1
6.242400E+3	1.000000E+2
6.242800E+3	7.100000E+1
6.243200E+3	1.180000E+2
6.243600E+3	1.130000E+2
6.244000E+3	1.190000E+2
6.244400E+3	1.070000E+2
6.244800E+3	1.410000E+2
6.245200E+3	1.280000E+2
6.245600E+3	1.330000E+2
6.246000E+3	1.060000E+2
6.246400E+3	1.210000E+2
6.246800E+3	9.500000E+1
6.247200E+3	1.120000E+2
6.247600E+3	1.180000E+2
6.248000E+3	9.600000E+1
6.248400E+3	1.330000E+2
6.248800E+3	1.730000E+2
6.249200E+3	1.400000E+2
6.249600E+3	1.210000E+2
6.250000E+3	1.080000E+2
