126.000	1.000	0.200	6920.000	6945.000
6.920000E+3	1.150000E+2
6.920200E+3	1.690000E+2
6.920400E+3	8.700000E+1
6.920600E+3	8.800000E+1
6.920800E+3	8.500000E+1
6.921000E+3	9.200000E+1
6.921200E+3	1.140000E+2
6.921400E+3	8.800000E+1
6.921600E+3	8.700000E+1
6.921800E+3	8.100000E+1
6.922000E+3	1.140000E+2
6.922200E+3	1.140000E+2
6.922400E+3	1.140000E+2
6.922600E+3	1.690000E+2
6.922800E+3	1.200000E+2
6.923000E+3	1.530000E+2
6.923200E+3	1.460000E+2
6.923400E+3	1.410000E+2
6.923600E+3	1.160000E+2
6.923800E+3	2.010000E+2
6.924000E+3	1.160000E+2
6.924200E+3	2.100000E+2
6.924400E+3	2.950000E+2
6.924600E+3	1.890000E+2
6.924800E+3	2.260000E+2
6.925000E+3	3.230000E+2
6.925200E+3	3.540000E+2
6.925400E+3	3.420000E+2
6.925600E+3	4.420000E+2
6.925800E+3	3.220000E+2
6.926000E+3	4.740000E+2
6.926200E+3	4.490000E+2
6.926400E+3	4.280000E+2
6.926600E+3	4.590000E+2
6.926800E+3	4.760000E+2
6.927000E+3	3.970000E+2
6.927200E+3	5.100000E+2
6.927400E+3	5.440000E+2
6.927600E+3	4.570000E+2
6.927800E+3	5.160000E+2
6.928000E+3	4.070000E+2
6.928200E+3	6.280000E+2
6.928400E+3	5.430000E+2
6.928600E+3	5.300000E+2
6.928800E+3	6.410000E+2
6.929000E+3	6.030000E+2
6.929200E+3	5.510000E+2
6.929400E+3	4.870000E+2
6.929600E+3	5.550000E+2
6.929800E+3	4.850000E+2
6.930000E+3	5.180000E+2
6.930200E+3	4.250000E+2
6.930400E+3	3.960000E+2
6.930600E+3	3.730000E+2
6.930800E+3	2.930000E+2
6.931000E+3	2.610000E+2
6.931200E+3	2.800000E+2
6.931400E+3	1.940000E+2
6.931600E+3	1.490000E+2
6.931800E+3	1.070000E+2
6.932000E+3	1.740000E+2
6.932200E+3	6.600000E+1
6.932400E+3	7.300000E+1
6.932600E+3	9.600000E+1
6.932800E+3	6.200000E+1
6.933000E+3	6.900000E+1
6.933200E+3	9.600000E+1
6.933400E+3	5.900000E+1
6.933600E+3	3.800000E+1
6.933800E+3	3.900000E+1
6.934000E+3	3.500000E+1
6.934200E+3	4.300000E+1
6.934400E+3	6.300000E+1
6.934600E+3	6.700000E+1
6.934800E+3	6.300000E+1
6.935000E+3	6.900000E+1
6.935200E+3	4.300000E+1
6.935400E+3	4.500000E+1
6.935600E+3	6.300000E+1
6.935800E+3	7.100000E+1
6.936000E+3	5.900000E+1
6.936200E+3	5.600000E+1
6.936400E+3	6.500000E+1
6.936600E+3	9.200000E+1
6.936800E+3	4.600000E+1
6.937000E+3	8.200000E+1
6.937200E+3	6.500000E+1
6.937400E+3	3.500000E+1
6.937600E+3	3.500000E+1
6.937800E+3	8.100000E+1
6.938000E+3	2.200000E+1
6.938200E+3	4.500000E+1
6.938400E+3	5.400000E+1
6.938600E+3	4.300000E+1
6.938800E+3	6.600000E+1
6.939000E+3	9.000000E+1
6.939200E+3	4.900000E+1
6.939400E+3	4.300000E+1
6.939600E+3	6.800000E+1
6.939800E+3	9.300000E+1
6.940000E+3	4.700000E+1
6.940200E+3	5.700000E+1
6.940400E+3	4.800000E+1
6.940600E+3	5.700000E+1
6.940800E+3	4.100000E+1
6.941000E+3	4.600000E+1
6.941200E+3	8.300000E+1
6.941400E+3	5.800000E+1
6.941600E+3	8.500000E+1
6.941800E+3	7.400000E+1
6.942000E+3	8.400000E+1
6.942200E+3	6.600000E+1
6.942400E+3	5.500000E+1
6.942600E+3	5.400000E+1
6.942800E+3	2.000000E+1
6.943000E+3	4.900000E+1
6.943200E+3	3.700000E+1
6.943400E+3	4.800000E+1
6.943600E+3	7.300000E+1
6.943800E+3	6.100000E+1
6.944000E+3	4.500000E+1
6.944200E+3	3.500000E+1
6.944400E+3	0.000000E+0
