126.000	1.000	0.200	6920.000	6945.000
6.920000E+3	2.910000E+2
6.920200E+3	2.960000E+2
6.920400E+3	2.580000E+2
6.920600E+3	2.730000E+2
6.920800E+3	3.540000E+2
6.921000E+3	2.950000E+2
6.921200E+3	2.960000E+2
6.921400E+3	2.920000E+2
6.921600E+3	2.790000E+2
6.921800E+3	3.370000E+2
6.922000E+3	3.270000E+2
6.922200E+3	2.370000E+2
6.922400E+3	3.450000E+2
6.922600E+3	3.110000E+2
6.922800E+3	3.510000E+2
6.923000E+3	3.650000E+2
6.923200E+3	3.070000E+2
6.923400E+3	3.930000E+2
6.923600E+3	4.340000E+2
6.923800E+3	3.710000E+2
6.924000E+3	4.570000E+2
6.924200E+3	4.370000E+2
6.924400E+3	4.880000E+2
6.924600E+3	4.620000E+2
6.924800E+3	5.900000E+2
6.925000E+3	6.790000E+2
6.925200E+3	7.070000E+2
6.925400E+3	5.770000E+2
6.925600E+3	7.070000E+2
6.925800E+3	7.180000E+2
6.926000E+3	6.910000E+2
6.926200E+3	5.960000E+2
6.926400E+3	7.190000E+2
6.926600E+3	7.100000E+2
6.926800E+3	6.960000E+2
6.927000E+3	6.690000E+2
6.927200E+3	8.240000E+2
6.927400E+3	6.890000E+2
6.927600E+3	7.730000E+2
6.927800E+3	8.980000E+2
6.928000E+3	8.270000E+2
6.928200E+3	9.120000E+2
6.928400E+3	8.890000E+2
6.928600E+3	6.960000E+2
6.928800E+3	8.490000E+2
6.929000E+3	8.730000E+2
6.929200E+3	8.220000E+2
6.929400E+3	7.130000E+2
6.929600E+3	7.630000E+2
6.929800E+3	7.180000E+2
6.930000E+3	7.390000E+2
6.930200E+3	5.810000E+2
6.930400E+3	6.280000E+2
6.930600E+3	5.740000E+2
6.930800E+3	4.700000E+2
6.931000E+3	5.090000E+2
6.931200E+3	4.950000E+2
6.931400E+3	4.490000E+2
6.931600E+3	3.730000E+2
6.931800E+3	3.110000E+2
6.932000E+3	3.720000E+2
6.932200E+3	3.030000E+2
6.932400E+3	2.210000E+2
6.932600E+3	2.000000E+2
6.932800E+3	2.310000E+2
6.933000E+3	2.420000E+2
6.933200E+3	2.260000E+2
6.933400E+3	2.200000E+2
6.933600E+3	2.080000E+2
6.933800E+3	2.260000E+2
6.934000E+3	2.260000E+2
6.934200E+3	1.880000E+2
6.934400E+3	2.160000E+2
6.934600E+3	2.030000E+2
6.934800E+3	2.110000E+2
6.935000E+3	2.140000E+2
6.935200E+3	2.110000E+2
6.935400E+3	2.080000E+2
6.935600E+3	2.470000E+2
6.935800E+3	2.190000E+2
6.936000E+3	1.980000E+2
6.936200E+3	2.290000E+2
6.936400E+3	2.280000E+2
6.936600E+3	2.520000E+2
6.936800E+3	1.480000E+2
6.937000E+3	2.060000E+2
6.937200E+3	2.030000E+2
6.937400E+3	1.940000E+2
6.937600E+3	2.230000E+2
6.937800E+3	2.190000E+2
6.938000E+3	1.720000E+2
6.938200E+3	1.790000E+2
6.938400E+3	1.660000E+2
6.938600E+3	2.070000E+2
6.938800E+3	1.760000E+2
6.939000E+3	2.020000E+2
6.939200E+3	1.580000E+2
6.939400E+3	1.850000E+2
6.939600E+3	1.630000E+2
6.939800E+3	1.950000E+2
6.940000E+3	2.180000E+2
6.940200E+3	1.980000E+2
6.940400E+3	2.120000E+2
6.940600E+3	2.320000E+2
6.940800E+3	2.120000E+2
6.941000E+3	2.260000E+2
6.941200E+3	1.960000E+2
6.941400E+3	1.950000E+2
6.941600E+3	1.850000E+2
6.941800E+3	2.230000E+2
6.942000E+3	1.990000E+2
6.942200E+3	1.850000E+2
6.942400E+3	1.850000E+2
6.942600E+3	2.190000E+2
6.942800E+3	2.230000E+2
6.943000E+3	1.990000E+2
6.943200E+3	1.550000E+2
6.943400E+3	1.930000E+2
6.943600E+3	1.490000E+2
6.943800E+3	1.920000E+2
6.944000E+3	2.250000E+2
6.944200E+3	2.400000E+2
6.944400E+3	1.780000E+2
6.944600E+3	1.820000E+2
6.944800E+3	0.000000E+0
