271.000	1.000	1.000	6480.000	6750.000
6.480000E+3	1.730000E+2
6.481000E+3	1.680000E+2
6.482000E+3	2.600000E+2
6.483000E+3	1.810000E+2
6.484000E+3	1.280000E+2
6.485000E+3	1.670000E+2
6.486000E+3	2.230000E+2
6.487000E+3	1.620000E+2
6.488000E+3	1.640000E+2
6.489000E+3	1.830000E+2
6.490000E+3	7.500000E+1
6.491000E+3	1.600000E+2
6.492000E+3	1.320000E+2
6.493000E+3	1.520000E+2
6.494000E+3	1.480000E+2
6.495000E+3	1.130000E+2
6.496000E+3	1.780000E+2
6.497000E+3	1.500000E+2
6.498000E+3	1.830000E+2
6.499000E+3	1.920000E+2
6.500000E+3	1.400000E+2
6.501000E+3	1.860000E+2
6.502000E+3	2.030000E+2
6.503000E+3	3.520000E+2
6.504000E+3	3.210000E+2
6.505000E+3	3.890000E+2
6.506000E+3	4.460000E+2
6.507000E+3	3.760000E+2
6.508000E+3	3.960000E+2
6.509000E+3	2.590000E+2
6.510000E+3	2.330000E+2
6.511000E+3	1.530000E+2
6.512000E+3	1.550000E+2
6.513000E+3	1.540000E+2
6.514000E+3	1.440000E+2
6.515000E+3	1.340000E+2
6.516000E+3	1.310000E+2
6.517000E+3	1.780000E+2
6.518000E+3	1.810000E+2
6.519000E+3	1.280000E+2
6.520000E+3	1.500000E+2
6.521000E+3	1.270000E+2
6.522000E+3	1.120000E+2
6.523000E+3	1.780000E+2
6.524000E+3	1.770000E+2
6.525000E+3	1.460000E+2
6.526000E+3	1.410000E+2
6.527000E+3	1.240000E+2
6.528000E+3	1.520000E+2
6.529000E+3	2.080000E+2
6.530000E+3	2.330000E+2
6.531000E+3	1.720000E+2
6.532000E+3	1.530000E+2
6.533000E+3	1.740000E+2
6.534000E+3	2.490000E+2
6.535000E+3	1.790000E+2
6.536000E+3	1.810000E+2
6.537000E+3	1.050000E+2
6.538000E+3	1.470000E+2
6.539000E+3	1.270000E+2
6.540000E+3	1.360000E+2
6.541000E+3	1.140000E+2
6.542000E+3	1.310000E+2
6.543000E+3	1.330000E+2
6.544000E+3	1.750000E+2
6.545000E+3	1.330000E+2
6.546000E+3	1.470000E+2
6.547000E+3	1.570000E+2
6.548000E+3	1.510000E+2
6.549000E+3	1.930000E+2
6.550000E+3	1.630000E+2
6.551000E+3	1.770000E+2
6.552000E+3	1.290000E+2
6.553000E+3	1.720000E+2
6.554000E+3	1.340000E+2
6.555000E+3	1.370000E+2
6.556000E+3	1.800000E+2
6.557000E+3	1.210000E+2
6.558000E+3	1.410000E+2
6.559000E+3	1.560000E+2
6.560000E+3	2.140000E+2
6.561000E+3	1.570000E+2
6.562000E+3	1.520000E+2
6.563000E+3	1.520000E+2
6.564000E+3	8.700000E+1
6.565000E+3	1.550000E+2
6.566000E+3	1.690000E+2
6.567000E+3	1.510000E+2
6.568000E+3	1.240000E+2
6.569000E+3	1.290000E+2
6.570000E+3	1.770000E+2
6.571000E+3	1.680000E+2
6.572000E+3	1.280000E+2
6.573000E+3	1.590000E+2
6.574000E+3	1.600000E+2
6.575000E+3	1.360000E+2
6.576000E+3	9.100000E+1
6.577000E+3	1.630000E+2
6.578000E+3	1.530000E+2
6.579000E+3	1.460000E+2
6.580000E+3	1.360000E+2
6.581000E+3	1.360000E+2
6.582000E+3	1.130000E+2
6.583000E+3	1.200000E+2
6.584000E+3	1.280000E+2
6.585000E+3	1.500000E+2
6.586000E+3	1.140000E+2
6.587000E+3	1.310000E+2
6.588000E+3	1.790000E+2
6.589000E+3	1.820000E+2
6.590000E+3	1.020000E+2
6.591000E+3	1.010000E+2
6.592000E+3	1.060000E+2
6.593000E+3	1.640000E+2
6.594000E+3	1.680000E+2
6.595000E+3	1.690000E+2
6.596000E+3	2.250000E+2
6.597000E+3	2.570000E+2
6.598000E+3	3.310000E+2
6.599000E+3	3.180000E+2
6.600000E+3	2.820000E+2
6.601000E+3	2.210000E+2
6.602000E+3	1.720000E+2
6.603000E+3	1.310000E+2
6.604000E+3	1.560000E+2
6.605000E+3	0.000000E+0
